1.60E+15,8192,-9.09E-12,128,0,0,0,32831,16428,32705,32768,32765,32764,1,4,4,,0.2,32831,16428,32705,32768,32765,32764,0.003845215,-0.997314453,-0.003845215,0,-0.182926829,-0.243902439,,0.037721558,-9.783654785,-0.037721558,0,-0.003191057,-0.004254743
1.60E+15,8192,-9.09E-12,128,0,0,0,0,0,0,0,0,0,1,4,4,,0.4,32762,16457,32635,32758,32765,32767,-0.000366211,-0.995544434,-0.008117676,-0.609756098,-0.182926829,-0.06097561,,-0.003592529,-9.766290894,-0.079634399,-0.010636856,-0.003191057,-0.001063686
1.60E+15,429,-9.09E-12,128,0,0,0,0,0,0,0,0,0,1,4,4,,0.6,32746,16389,32700,32764,32765,32766,-0.001342773,-0.999694824,-0.004150391,-0.243902439,-0.182926829,-0.12195122,,-0.013172607,-9.807006226,-0.040715332,-0.004254743,-0.003191057,-0.002127371
1.60E+15,425,-9.09E-12,128,0,0,0,0,0,0,0,0,0,1,4,4,,0.8,32779,16486,32716,32763,32765,32766,0.000671387,-0.993774414,-0.003173828,-0.304878049,-0.182926829,-0.12195122,,0.006586304,-9.748927002,-0.031135254,-0.005318428,-0.003191057,-0.002127371
1.60E+15,418,-9.09E-12,128,0,0,0,0,0,0,0,0,0,1,4,4,,1,32774,16411,32727,32763,32765,32767,0.000366211,-0.998352051,-0.002502441,-0.304878049,-0.182926829,-0.06097561,,0.003592529,-9.793833618,-0.02454895,-0.005318428,-0.003191057,-0.001063686
1.60E+15,416,-9.09E-12,128,0,0,0,0,0,0,0,0,0,1,4,4,,1.2,32779,16436,32721,32768,32764,32766,0.000671387,-0.996826172,-0.002868652,0,-0.243902439,-0.12195122,,0.006586304,-9.778864746,-0.028141479,0,-0.004254743,-0.002127371
1.60E+15,411,-9.09E-12,128,0,0,0,0,0,0,0,0,0,1,4,4,,1.4,32790,16493,32613,32764,32766,32766,0.001342773,-0.993347168,-0.009460449,-0.243902439,-0.12195122,-0.12195122,,0.013172607,-9.744735718,-0.092807007,-0.004254743,-0.002127371,-0.002127371
1.60E+15,2957,-9.09E-12,128,0,0,0,0,0,0,0,0,0,1,4,4,,1.6,32795,16406,32718,32764,32764,32765,0.001647949,-0.998657227,-0.003051758,-0.243902439,-0.243902439,-0.182926829,,0.016166382,-9.796827393,-0.029937744,-0.004254743,-0.004254743,-0.003191057
1.60E+15,2755,-9.09E-12,128,0,0,0,0,0,0,0,0,0,1,4,4,,1.8,32767,16461,32680,32765,32764,32767,-6.10E-05,-0.995300293,-0.005371094,-0.182926829,-0.243902439,-0.06097561,,-0.000598755,-9.763895874,-0.05269043,-0.003191057,-0.004254743,-0.001063686
1.60E+15,2344,-9.09E-12,128,0,0,0,0,0,0,0,0,0,1,4,4,,2,32786,16433,32705,32762,32764,32767,0.001098633,-0.997009277,-0.003845215,-0.365853659,-0.243902439,-0.06097561,,0.010777588,-9.780661011,-0.037721558,-0.006382114,-0.004254743,-0.001063686
1.60E+15,2382,-9.09E-12,128,0,0,0,0,0,0,0,0,0,1,4,4,,2.2,32758,16383,32707,32765,32765,32766,-0.000610352,-1.000061035,-0.003723145,-0.182926829,-0.182926829,-0.12195122,,-0.005987549,-9.810598755,-0.036524048,-0.003191057,-0.003191057,-0.002127371
1.60E+15,2798,-9.09E-12,128,0,0,0,0,0,0,0,0,0,1,4,4,,2.4,32759,16462,32744,32768,32765,32766,-0.000549316,-0.995239258,-0.001464844,0,-0.182926829,-0.12195122,,-0.005388794,-9.763297119,-0.014370117,0,-0.003191057,-0.002127371
1.60E+15,2987,-9.09E-12,128,0,0,0,32782,16577,32684,32759,32766,32765,1,4,4,,2.6,32821,16459,32753,32760,32766,32767,0.003234863,-0.995422363,-0.000915527,-0.487804878,-0.12195122,-0.06097561,,0.031734009,-9.765093384,-0.008981323,-0.008509485,-0.002127371,-0.001063686
1.60E+15,2792,-9.09E-12,128,0,0,0,0,0,0,0,0,0,1,4,4,,2.8,32758,16413,32685,32764,32764,32769,-0.000610352,-0.99822998,-0.005065918,-0.243902439,-0.243902439,0.06097561,,-0.005987549,-9.792636108,-0.049696655,-0.004254743,-0.004254743,0.001063686
1.60E+15,2643,-9.09E-12,128,0,0,0,0,0,0,0,0,0,1,4,4,,3,32784,16405,32697,32765,32764,32765,0.000976563,-0.998718262,-0.004333496,-0.182926829,-0.243902439,-0.182926829,,0.009580078,-9.797426147,-0.042511597,-0.003191057,-0.004254743,-0.003191057
1.60E+15,2790,-9.09E-12,128,0,0,0,0,0,0,0,0,0,1,4,4,,3.2,32791,16485,32680,32761,32765,32767,0.001403809,-0.993835449,-0.005371094,-0.426829268,-0.182926829,-0.06097561,,0.013771362,-9.749525757,-0.05269043,-0.007445799,-0.003191057,-0.001063686
1.60E+15,3037,-9.09E-12,128,0,0,0,0,0,0,0,0,0,1,4,4,,3.4,32791,16333,32713,32768,32764,32767,0.001403809,-1.003112793,-0.003356934,0,-0.243902439,-0.06097561,,0.013771362,-9.840536499,-0.032931519,0,-0.004254743,-0.001063686
1.60E+15,3100,-9.09E-12,128,0,0,0,0,0,0,0,0,0,1,4,4,,3.6,32792,16548,32663,32760,32766,32766,0.001464844,-0.989990234,-0.006408691,-0.487804878,-0.12195122,-0.12195122,,0.014370117,-9.711804199,-0.062869263,-0.008509485,-0.002127371,-0.002127371
1.60E+15,3004,-9.09E-12,128,0,0,0,0,0,0,0,0,0,1,4,4,,3.8,32779,16560,32672,32760,32765,32766,0.000671387,-0.989257813,-0.005859375,-0.487804878,-0.182926829,-0.12195122,,0.006586304,-9.704619141,-0.057480469,-0.008509485,-0.003191057,-0.002127371
1.60E+15,2942,-9.09E-12,128,0,0,0,0,0,0,0,0,0,1,4,4,,4,32769,16252,32768,32768,32764,32767,6.10E-05,-1.008056641,0,0,-0.243902439,-0.06097561,,0.000598755,-9.889035645,0,0,-0.004254743,-0.001063686
1.60E+15,3021,-9.09E-12,128,0,0,0,0,0,0,0,0,0,1,4,4,,4.2,32781,16560,32662,32762,32763,32766,0.000793457,-0.989257813,-0.006469727,-0.365853659,-0.304878049,-0.12195122,,0.007783813,-9.704619141,-0.063468018,-0.006382114,-0.005318428,-0.002127371
1.60E+15,3194,-9.09E-12,128,0,0,0,0,0,0,0,0,0,1,4,4,,4.4,32766,16357,32766,32765,32764,32767,-0.00012207,-1.001647949,-0.00012207,-0.182926829,-0.243902439,-0.06097561,,-0.00119751,-9.826166382,-0.00119751,-0.003191057,-0.004254743,-0.001063686
1.60E+15,3293,-9.09E-12,128,0,0,0,0,0,0,0,0,0,1,4,4,,4.6,32789,16373,32758,32764,32765,32766,0.001281738,-1.000671387,-0.000610352,-0.243902439,-0.182926829,-0.12195122,,0.012573853,-9.816586304,-0.005987549,-0.004254743,-0.003191057,-0.002127371
1.60E+15,3242,-9.09E-12,128,0,0,0,0,0,0,0,0,0,1,4,4,,4.8,32794,16416,32642,32765,32764,32768,0.001586914,-0.998046875,-0.00769043,-0.182926829,-0.243902439,0,,0.015567627,-9.790839844,-0.075443115,-0.003191057,-0.004254743,0
1.60E+15,3164,-9.09E-12,128,0,0,0,32763,16342,32627,32761,32766,32765,1,4,4,,5,32788,16475,32692,32761,32765,32766,0.001220703,-0.994445801,-0.004638672,-0.426829268,-0.182926829,-0.12195122,,0.011975098,-9.755513306,-0.045505371,-0.007445799,-0.003191057,-0.002127371
1.60E+15,3205,-9.09E-12,128,0,0,0,0,0,0,0,0,0,1,4,4,,5.2,32759,16361,32737,32768,32765,32768,-0.000549316,-1.001403809,-0.00189209,0,-0.182926829,0,,-0.005388794,-9.823771362,-0.018561401,0,-0.003191057,0
1.60E+15,3385,-9.09E-12,128,0,0,0,0,0,0,0,0,0,1,4,4,,5.4,32771,16337,32693,32767,32763,32766,0.000183105,-1.002868652,-0.004577637,-0.06097561,-0.304878049,-0.12195122,,0.001796265,-9.838141479,-0.044906616,-0.001063686,-0.005318428,-0.002127371
1.60E+15,3509,-9.09E-12,128,0,0,0,0,0,0,0,0,0,1,4,4,,5.6,32793,16572,32653,32760,32765,32767,0.001525879,-0.988525391,-0.007019043,-0.487804878,-0.182926829,-0.06097561,,0.014968872,-9.697434082,-0.068856812,-0.008509485,-0.003191057,-0.001063686
1.60E+15,3453,-9.09E-12,128,0,0,0,0,0,0,0,0,0,1,4,4,,5.8,32788,16267,32766,32767,32763,32768,0.001220703,-1.007141113,-0.00012207,-0.06097561,-0.304878049,0,,0.011975098,-9.880054321,-0.00119751,-0.001063686,-0.005318428,0
1.60E+15,3345,-9.09E-12,128,0,0,0,0,0,0,0,0,0,1,4,4,,6,32777,16570,32657,32762,32765,32765,0.000549316,-0.988647461,-0.006774902,-0.365853659,-0.182926829,-0.182926829,,0.005388794,-9.698631592,-0.066461792,-0.006382114,-0.003191057,-0.003191057
1.60E+15,3385,-9.09E-12,128,0,0,0,0,0,0,0,0,0,1,4,4,,6.2,32791,16582,32646,32760,32766,32767,0.001403809,-0.987915039,-0.007446289,-0.487804878,-0.12195122,-0.06097561,,0.013771362,-9.691446533,-0.073048096,-0.008509485,-0.002127371,-0.001063686
1.60E+15,3592,-9.09E-12,128,0,0,0,0,0,0,0,0,0,1,4,4,,6.4,32775,16296,32775,32767,32765,32766,0.000427246,-1.005371094,0.000427246,-0.06097561,-0.182926829,-0.12195122,,0.004191284,-9.86269043,0.004191284,-0.001063686,-0.003191057,-0.002127371
1.60E+15,3713,-9.09E-12,128,0,0,0,0,0,0,0,0,0,1,4,4,,6.6,32810,16560,32673,32761,32765,32767,0.002563477,-0.989257813,-0.00579834,-0.426829268,-0.182926829,-0.06097561,,0.025147705,-9.704619141,-0.056881714,-0.007445799,-0.003191057,-0.001063686
1.60E+15,3634,-9.09E-12,128,0,0,0,0,0,0,0,0,0,1,4,4,,6.8,32804,16315,32681,32766,32764,32767,0.002197266,-1.004211426,-0.005310059,-0.12195122,-0.243902439,-0.06097561,,0.021555176,-9.851314087,-0.052091675,-0.002127371,-0.004254743,-0.001063686
1.60E+15,3520,-9.09E-12,128,0,0,0,0,0,0,0,0,0,1,4,4,,7,32774,16381,32672,32765,32765,32767,0.000366211,-1.000183105,-0.005859375,-0.182926829,-0.182926829,-0.06097561,,0.003592529,-9.811796265,-0.057480469,-0.003191057,-0.003191057,-0.001063686
1.60E+15,3583,-9.09E-12,128,0,0,0,0,0,0,0,0,0,1,4,4,,7.2,32775,16427,32707,32762,32766,32766,0.000427246,-0.997375488,-0.003723145,-0.365853659,-0.12195122,-0.12195122,,0.004191284,-9.78425354,-0.036524048,-0.006382114,-0.002127371,-0.002127371
1.60E+15,3786,-9.09E-12,128,0,0,0,32774,16315,32728,32770,32763,32766,1,4,4,,7.4,32793,16479,32668,32765,32765,32766,0.001525879,-0.99420166,-0.006103516,-0.182926829,-0.182926829,-0.12195122,,0.014968872,-9.753118286,-0.059875488,-0.003191057,-0.003191057,-0.002127371
1.60E+15,3883,-9.09E-12,128,0,0,0,0,0,0,0,0,0,1,4,4,,7.6,32797,16339,32743,32766,32764,32766,0.00177002,-1.002746582,-0.001525879,-0.12195122,-0.243902439,-0.12195122,,0.017363892,-9.83694397,-0.014968872,-0.002127371,-0.004254743,-0.002127371
1.60E+15,3796,-9.09E-12,128,0,0,0,0,0,0,0,0,0,1,4,4,,7.8,32770,16271,32760,32765,32764,32767,0.00012207,-1.006896973,-0.000488281,-0.182926829,-0.243902439,-0.06097561,,0.00119751,-9.877659302,-0.004790039,-0.003191057,-0.004254743,-0.001063686
1.60E+15,3690,-9.09E-12,128,0,0,0,0,0,0,0,0,0,1,4,4,,8,32811,16580,32678,32762,32766,32766,0.002624512,-0.988037109,-0.005493164,-0.365853659,-0.12195122,-0.12195122,,0.02574646,-9.692644043,-0.053887939,-0.006382114,-0.002127371,-0.002127371
1.60E+15,3764,-9.09E-12,128,0,0,0,0,0,0,0,0,0,1,4,4,,8.2,32792,16330,32723,32766,32764,32766,0.001464844,-1.003295898,-0.002746582,-0.12195122,-0.243902439,-0.12195122,,0.014370117,-9.842332764,-0.02694397,-0.002127371,-0.004254743,-0.002127371
1.60E+15,3960,-9.09E-12,128,0,0,0,0,0,0,0,0,0,1,4,4,,8.4,32798,16485,32687,32761,32764,32766,0.001831055,-0.993835449,-0.004943848,-0.426829268,-0.243902439,-0.12195122,,0.017962646,-9.749525757,-0.048499146,-0.007445799,-0.004254743,-0.002127371
1.60E+15,4059,-9.09E-12,128,0,0,0,0,0,0,0,0,0,1,4,4,,8.6,32768,16411,32741,32762,32765,32766,0,-0.998352051,-0.001647949,-0.365853659,-0.182926829,-0.12195122,,0,-9.793833618,-0.016166382,-0.006382114,-0.003191057,-0.002127371
1.60E+15,3964,-9.09E-12,128,0,0,0,0,0,0,0,0,0,1,4,4,,8.8,32816,16485,32726,32765,32763,32767,0.002929688,-0.993835449,-0.002563477,-0.182926829,-0.304878049,-0.06097561,,0.028740234,-9.749525757,-0.025147705,-0.003191057,-0.005318428,-0.001063686
1.60E+15,3871,-9.09E-12,128,0,0,0,0,0,0,0,0,0,1,4,4,,9,32795,16324,32732,32765,32765,32767,0.001647949,-1.003662109,-0.002197266,-0.182926829,-0.182926829,-0.06097561,,0.016166382,-9.845925293,-0.021555176,-0.003191057,-0.003191057,-0.001063686
1.60E+15,3945,-9.09E-12,128,0,0,0,0,0,0,0,0,0,1,4,4,,9.2,32792,16541,32641,32763,32764,32767,0.001464844,-0.99041748,-0.007751465,-0.304878049,-0.243902439,-0.06097561,,0.014370117,-9.715995483,-0.07604187,-0.005318428,-0.004254743,-0.001063686
1.60E+15,4140,-9.09E-12,128,0,0,0,0,0,0,0,0,0,1,4,4,,9.4,32787,16574,32645,32761,32763,32767,0.001159668,-0.98840332,-0.007507324,-0.426829268,-0.304878049,-0.06097561,,0.011376343,-9.696236572,-0.073646851,-0.007445799,-0.005318428,-0.001063686
1.60E+15,4219,-9.09E-12,128,0,0,0,0,0,0,0,0,0,1,4,4,,9.6,32810,16263,32734,32768,32763,32767,0.002563477,-1.007385254,-0.002075195,0,-0.304878049,-0.06097561,,0.025147705,-9.882449341,-0.020357666,0,-0.005318428,-0.001063686
1.60E+15,4125,-9.09E-12,128,0,0,0,32776,16542,32677,32762,32765,32766,1,4,4,,9.8,32802,16537,32621,32760,32765,32764,0.002075195,-0.990661621,-0.008972168,-0.487804878,-0.182926829,-0.243902439,,0.020357666,-9.718390503,-0.088016968,-0.008509485,-0.003191057,-0.004254743
1.60E+15,4024,-9.09E-12,128,0,0,0,0,0,0,0,0,0,1,4,4,,10,32767,16317,32745,32766,32764,32768,-6.10E-05,-1.004089355,-0.001403809,-0.12195122,-0.243902439,0,,-0.000598755,-9.850116577,-0.013771362,-0.002127371,-0.004254743,0
1.60E+15,4106,-9.09E-12,128,0,0,0,0,0,0,0,0,0,1,4,4,,10.2,32762,16495,32718,32761,32765,32766,-0.000366211,-0.993225098,-0.003051758,-0.426829268,-0.182926829,-0.12195122,,-0.003592529,-9.743538208,-0.029937744,-0.007445799,-0.003191057,-0.002127371
1.60E+15,4303,-9.09E-12,128,0,0,0,0,0,0,0,0,0,1,4,4,,10.4,32777,16450,32732,32762,32765,32767,0.000549316,-0.99597168,-0.002197266,-0.365853659,-0.182926829,-0.06097561,,0.005388794,-9.770482178,-0.021555176,-0.006382114,-0.003191057,-0.001063686
1.60E+15,4387,-9.09E-12,128,0,0,0,0,0,0,0,0,0,1,4,4,,10.6,32769,16392,32698,32766,32764,32766,6.10E-05,-0.999511719,-0.004272461,-0.12195122,-0.243902439,-0.12195122,,0.000598755,-9.805209961,-0.041912842,-0.002127371,-0.004254743,-0.002127371
1.60E+15,4285,-9.09E-12,128,0,0,0,0,0,0,0,0,0,1,4,4,,10.8,32801,16415,32741,32760,32765,32767,0.00201416,-0.99810791,-0.001647949,-0.487804878,-0.182926829,-0.06097561,,0.019758911,-9.791438599,-0.016166382,-0.008509485,-0.003191057,-0.001063686
1.60E+15,4189,-9.09E-12,128,0,0,0,0,0,0,0,0,0,1,4,4,,11,32804,16341,32728,32765,32765,32766,0.002197266,-1.002624512,-0.002441406,-0.182926829,-0.182926829,-0.12195122,,0.021555176,-9.83574646,-0.023950195,-0.003191057,-0.003191057,-0.002127371
1.60E+15,4269,-9.09E-12,128,0,0,0,0,0,0,0,0,0,1,4,4,,11.2,32774,16532,32709,32763,32765,32767,0.000366211,-0.990966797,-0.003601074,-0.304878049,-0.182926829,-0.06097561,,0.003592529,-9.721384277,-0.035326538,-0.005318428,-0.003191057,-0.001063686
1.60E+15,4464,-9.09E-12,128,0,0,0,0,0,0,0,0,0,1,4,4,,11.4,32765,16288,32724,32766,32765,32767,-0.000183105,-1.005859375,-0.002685547,-0.12195122,-0.182926829,-0.06097561,,-0.001796265,-9.867480469,-0.026345215,-0.002127371,-0.003191057,-0.001063686
1.60E+15,4540,-9.09E-12,128,0,0,0,0,0,0,0,0,0,1,4,4,,11.6,32830,16556,32705,32762,32766,32767,0.00378418,-0.989501953,-0.003845215,-0.365853659,-0.12195122,-0.06097561,,0.037122803,-9.70701416,-0.037721558,-0.006382114,-0.002127371,-0.001063686
1.60E+15,4416,-9.09E-12,128,0,0,0,0,0,0,0,0,0,1,4,4,,11.8,32792,16573,32723,32760,32766,32766,0.001464844,-0.988464355,-0.002746582,-0.487804878,-0.12195122,-0.12195122,,0.014370117,-9.696835327,-0.02694397,-0.008509485,-0.002127371,-0.002127371
1.60E+15,4332,-9.09E-12,128,0,0,0,0,0,0,0,0,0,1,4,4,,12,32771,16360,32686,32767,32765,32769,0.000183105,-1.001464844,-0.005004883,-0.06097561,-0.182926829,0.06097561,,0.001796265,-9.824370117,-0.0490979,-0.001063686,-0.003191057,0.001063686
1.60E+15,4421,-9.09E-12,128,0,0,0,32762,16457,32635,32758,32765,32767,1,4,4,,12.2,32783,16503,32686,32759,32765,32765,0.000915527,-0.992736816,-0.005004883,-0.548780488,-0.182926829,-0.182926829,,0.008981323,-9.738748169,-0.0490979,-0.009573171,-0.003191057,-0.003191057
1.60E+15,4613,-9.09E-12,128,0,0,0,0,0,0,0,0,0,1,4,4,,12.4,32790,16376,32718,32769,32764,32766,0.001342773,-1.000488281,-0.003051758,0.06097561,-0.243902439,-0.12195122,,0.013172607,-9.814790039,-0.029937744,0.001063686,-0.004254743,-0.002127371
1.60E+15,4680,-9.09E-12,128,0,0,0,0,0,0,0,0,0,1,4,4,,12.6,32769,16428,32740,32763,32763,32765,6.10E-05,-0.997314453,-0.001708984,-0.304878049,-0.304878049,-0.182926829,,0.000598755,-9.783654785,-0.016765137,-0.005318428,-0.005318428,-0.003191057
1.60E+15,4559,-9.09E-12,128,0,0,0,0,0,0,0,0,0,1,4,4,,12.8,32789,16296,32781,32767,32766,32766,0.001281738,-1.005371094,0.000793457,-0.06097561,-0.12195122,-0.12195122,,0.012573853,-9.86269043,0.007783813,-0.001063686,-0.002127371,-0.002127371
1.60E+15,4477,-9.09E-12,128,0,0,0,0,0,0,0,0,0,1,4,4,,13,32810,16554,32665,32761,32765,32765,0.002563477,-0.989624023,-0.006286621,-0.426829268,-0.182926829,-0.182926829,,0.025147705,-9.70821167,-0.061671753,-0.007445799,-0.003191057,-0.003191057
1.60E+15,4574,-9.09E-12,128,0,0,0,0,0,0,0,0,0,1,4,4,,13.2,32776,16292,32771,32766,32764,32768,0.000488281,-1.005615234,0.000183105,-0.12195122,-0.243902439,0,,0.004790039,-9.865085449,0.001796265,-0.002127371,-0.004254743,0
1.60E+15,4765,-9.10E-12,128,0,0,0,0,0,0,0,0,0,1,4,4,,13.4,32780,16586,32695,32762,32765,32766,0.000732422,-0.987670898,-0.004455566,-0.365853659,-0.182926829,-0.12195122,,0.007185059,-9.689051514,-0.043709106,-0.006382114,-0.003191057,-0.002127371
1.60E+15,4812,-9.11E-12,128,0,0,0,0,0,0,0,0,0,1,4,4,,13.6,32803,16514,32675,32760,32764,32767,0.00213623,-0.99206543,-0.00567627,-0.487804878,-0.243902439,-0.06097561,,0.020956421,-9.732161865,-0.055684204,-0.008509485,-0.004254743,-0.001063686
1.60E+15,4691,-9.14E-12,128,0,0,0,0,0,0,0,0,0,1,4,4,,13.8,32786,16383,32739,32767,32765,32765,0.001098633,-1.000061035,-0.00177002,-0.06097561,-0.182926829,-0.182926829,,0.010777588,-9.810598755,-0.017363892,-0.001063686,-0.003191057,-0.003191057
1.60E+15,4605,-9.18E-12,128,0,0,0,0,0,0,0,0,0,1,4,4,,14,32815,16406,32729,32764,32764,32766,0.002868652,-0.998657227,-0.002380371,-0.243902439,-0.243902439,-0.12195122,,0.028141479,-9.796827393,-0.02335144,-0.004254743,-0.004254743,-0.002127371
1.60E+15,4708,-9.25E-12,128,0,0,0,0,0,0,0,0,0,1,4,4,,14.2,32772,16515,32665,32763,32765,32766,0.000244141,-0.992004395,-0.006286621,-0.304878049,-0.182926829,-0.12195122,,0.00239502,-9.73156311,-0.061671753,-0.005318428,-0.003191057,-0.002127371
1.60E+15,4913,-9.37E-12,128,0,0,0,0,0,0,0,0,0,1,4,4,,14.4,32817,16570,32662,32761,32765,32768,0.002990723,-0.988647461,-0.006469727,-0.426829268,-0.182926829,0,,0.029338989,-9.698631592,-0.063468018,-0.007445799,-0.003191057,0
1.60E+15,4951,-9.54E-12,128,0,0,0,32751,16296,32722,32768,32765,32767,1,4,4,,14.6,32773,16324,32700,32764,32763,32766,0.000305176,-1.003662109,-0.004150391,-0.243902439,-0.304878049,-0.12195122,,0.002993774,-9.845925293,-0.040715332,-0.004254743,-0.005318428,-0.002127371
1.60E+15,4823,-9.79E-12,128,0,0,0,0,0,0,0,0,0,1,4,4,,14.8,32840,16450,32796,32760,32765,32771,0.004394531,-0.99597168,0.001708984,-0.487804878,-0.182926829,0.182926829,,0.043110352,-9.770482178,0.016765137,-0.008509485,-0.003191057,0.003191057
1.60E+15,4749,-1.01E-11,128,0,0,0,0,0,0,0,0,0,1,4,4,,15,32866,16457,32718,32768,32765,32769,0.005981445,-0.995544434,-0.003051758,0,-0.182926829,0.06097561,,0.058677979,-9.766290894,-0.029937744,0,-0.003191057,0.001063686
1.60E+15,4858,-1.04E-11,128,0,0,0,0,0,0,0,0,0,1,4,4,,15.2,32714,16552,32498,32765,32765,32772,-0.003295898,-0.989746094,-0.016479492,-0.182926829,-0.182926829,0.243902439,,-0.032332764,-9.70940918,-0.161663818,-0.003191057,-0.003191057,0.004254743
1.60E+15,5041,-1.05E-11,128,0,0,0,0,0,0,0,0,0,1,4,4,,15.4,32487,16302,32717,32746,32764,32765,-0.017150879,-1.005004883,-0.003112793,-1.341463415,-0.243902439,-0.182926829,,-0.168250122,-9.8590979,-0.030536499,-0.023401084,-0.004254743,-0.003191057
1.60E+15,5084,-1.03E-11,128,0,0,0,0,0,0,0,0,0,1,4,4,,15.6,32959,16551,32670,32752,32765,32769,0.011657715,-0.989807129,-0.005981445,-0.975609756,-0.182926829,0.06097561,,0.114362183,-9.710007935,-0.058677979,-0.01701897,-0.003191057,0.001063686
1.60E+15,4950,-8.93E-12,128,0,0,0,0,0,0,0,0,0,1,4,4,,15.8,32463,16252,33152,32750,32764,32792,-0.018615723,-1.008056641,0.0234375,-1.097560976,-0.243902439,1.463414634,,-0.182620239,-9.889035645,0.229921875,-0.019146341,-0.004254743,0.025528455
1.60E+15,4880,-5.50E-12,128,0,0,0,0,0,0,0,0,0,1,4,4,,16,32901,16371,32837,32791,32766,32750,0.008117676,-1.000793457,0.004211426,1.402439024,-0.12195122,-1.097560976,,0.079634399,-9.817783813,0.041314087,0.02446477,-0.002127371,-0.019146341
1.60E+15,4992,1.79E-12,128,0,0,0,0,0,0,0,0,0,1,4,4,,16.2,32464,16451,32824,32752,32765,32760,-0.018554688,-0.995910645,0.003417969,-0.975609756,-0.182926829,-0.487804878,,-0.182021484,-9.769883423,0.033530273,-0.01701897,-0.003191057,-0.008509485
1.60E+15,5171,1.57E-11,128,0,0,0,0,0,0,0,0,0,1,4,4,,16.4,32877,16373,32816,32815,32738,32702,0.006652832,-1.000671387,0.002929688,2.865853659,-1.829268293,-4.024390244,,0.065264282,-9.816586304,0.028740234,0.049993225,-0.031910569,-0.070203252
1.60E+15,5199,4.02E-11,128,0,0,0,0,0,0,0,0,0,1,4,4,,16.6,32670,16388,32775,32690,32775,32808,-0.005981445,-0.999755859,0.000427246,-4.756097561,0.426829268,2.43902439,,-0.058677979,-9.80760498,0.004191284,-0.08296748,0.007445799,0.042547425
1.60E+15,5076,8.08E-11,128,0,0,0,0,0,0,0,0,0,1,4,4,,16.8,33070,16295,33043,32742,32762,32764,0.018432617,-1.005432129,0.016784668,-1.585365854,-0.365853659,-0.243902439,,0.180823975,-9.863289185,0.164657593,-0.027655827,-0.006382114,-0.004254743
1.60E+15,5000,1.44E-10,128,0,0,0,32777,16325,32774,32766,32765,32767,1,4,4,,17,32900,16566,32163,32780,32764,32797,0.008056641,-0.988891602,-0.03692627,0.731707317,-0.243902439,1.768292683,,0.079035645,-9.701026611,-0.362246704,0.012764228,-0.004254743,0.030846883
1.60E+15,5109,2.35E-10,128,0,0,0,0,0,0,0,0,0,1,4,4,,17.2,32564,16378,32560,32752,32732,32793,-0.012451172,-1.000366211,-0.012695313,-0.975609756,-2.195121951,1.524390244,,-0.122145996,-9.813592529,-0.124541016,-0.01701897,-0.038292683,0.026592141
1.60E+15,5296,3.56E-10,128,0,0,0,0,0,0,0,0,0,1,4,4,,17.4,33027,16464,32883,32751,32287,32772,0.015808105,-0.995117188,0.007019043,-1.036585366,-29.32926829,0.243902439,,0.155077515,-9.762099609,0.068856812,-0.018082656,-0.511632791,0.004254743
1.60E+15,5319,4.97E-10,128,0,0,0,0,0,0,0,0,0,1,4,4,,17.6,33089,16435,32798,32820,31744,32748,0.019592285,-0.996887207,0.001831055,3.170731707,-62.43902439,-1.219512195,,0.192200317,-9.779463501,0.017962646,0.055311653,-1.089214092,-0.021273713
1.60E+15,5187,6.22E-10,128,0,0,0,0,0,0,0,0,0,1,4,4,,17.8,33378,16134,33688,32811,31564,32799,0.037231445,-1.015258789,0.056152344,2.62195122,-73.41463415,1.890243902,,0.365240479,-9.959688721,0.550854492,0.045738482,-1.280677507,0.032974255
1.60E+15,5120,6.44E-10,128,0,0,0,0,0,0,0,0,0,1,4,4,,18,32797,16517,33052,32784,31442,32807,0.00177002,-0.991882324,0.017333984,0.975609756,-80.85365854,2.37804878,,0.017363892,-9.730365601,0.170046387,0.01701897,-1.410447154,0.04148374
1.60E+15,5243,3.84E-10,128,0,0,0,0,0,0,0,0,0,1,4,4,,18.2,32524,16345,32542,32848,31382,32728,-0.014892578,-1.002380371,-0.013793945,4.87804878,-84.51219512,-2.43902439,,-0.146096191,-9.83335144,-0.135318604,0.085094851,-1.474268293,-0.042547425
1.60E+15,5408,-4.89E-10,128,0,0,0,0,0,0,0,0,0,1,4,4,,18.4,31337,16459,32467,32769,31539,32788,-0.087341309,-0.995422363,-0.018371582,0.06097561,-74.93902439,1.219512195,,-0.856818237,-9.765093384,-0.18022522,0.001063686,-1.307269648,0.021273713
1.60E+15,5428,-2.55E-09,128,0,0,0,0,0,0,0,0,0,1,4,4,,18.6,32465,16572,33005,32769,31579,32761,-0.018493652,-0.988525391,0.014465332,0.06097561,-72.5,-0.426829268,,-0.181422729,-9.697434082,0.141904907,0.001063686,-1.264722222,-0.007445799
1.60E+15,5297,-6.72E-09,128,0,0,0,0,0,0,0,0,0,1,4,4,,18.8,32558,16175,33713,32758,32750,32780,-0.012817383,-1.012756348,0.057678223,-0.609756098,-1.097560976,0.731707317,,-0.125738525,-9.935139771,0.565823364,-0.010636856,-0.019146341,0.012764228
1.60E+15,5231,-1.44E-08,128,0,0,0,0,0,0,0,0,0,1,4,4,,19,32313,16502,32951,32793,32764,32758,-0.027770996,-0.992797852,0.011169434,1.524390244,-0.243902439,-0.609756098,,-0.272433472,-9.739346924,0.109572144,0.026592141,-0.004254743,-0.010636856
1.60E+15,5360,-2.77E-08,128,0,0,0,0,0,0,0,0,0,1,4,4,,19.2,32691,16446,32790,32752,32770,32777,-0.004699707,-0.99621582,0.001342773,-0.975609756,0.12195122,0.548780488,,-0.046104126,-9.772877197,0.013172607,-0.01701897,0.002127371,0.009573171
1.60E+15,5528,-4.90E-08,128,0,0,0,32740,16383,32700,32765,32764,32767,1,4,4,,19.4,32656,16396,32676,32746,32906,32768,-0.006835938,-0.999267578,-0.005615234,-1.341463415,8.414634146,0,,-0.067060547,-9.802814941,-0.055085449,-0.023401084,0.146788618,0
1.60E+15,5537,-8.13E-08,128,0,0,0,0,0,0,0,0,0,1,4,4,,19.6,32576,16371,33110,32744,33064,32761,-0.01171875,-1.000793457,0.020874023,-1.463414634,18.04878049,-0.426829268,,-0.114960938,-9.817783813,0.20477417,-0.025528455,0.314850949,-0.007445799
1.60E+15,5407,-1.27E-07,128,0,0,0,0,0,0,0,0,0,1,4,4,,19.8,32757,16460,32753,32732,33784,32757,-0.000671387,-0.995361328,-0.000915527,-2.195121951,61.95121951,-0.670731707,,-0.006586304,-9.764494629,-0.008981323,-0.038292683,1.080704607,-0.011700542
1.60E+15,5342,-1.85E-07,128,0,0,0,0,0,0,0,0,0,1,4,4,,20,32514,16444,33258,32710,34156,32778,-0.01550293,-0.996337891,0.029907227,-3.536585366,84.63414634,0.609756098,,-0.15208374,-9.774074707,0.293389893,-0.061693767,1.476395664,0.010636856
1.60E+15,5478,-2.48E-07,128,0,0,0,0,0,0,0,0,0,1,4,4,,20.2,32518,16388,32795,32760,34401,32773,-0.015258789,-0.999755859,0.001647949,-0.487804878,99.57317073,0.304878049,,-0.149688721,-9.80760498,0.016166382,-0.008509485,1.736998645,0.005318428
1.60E+15,5636,-2.95E-07,128,0,0,0,0,0,0,0,0,0,1,4,4,,20.4,33167,16624,32391,32737,34531,32745,0.024353027,-0.985351563,-0.023010254,-1.890243902,107.5,-1.402439024,,0.238903198,-9.666298828,-0.225730591,-0.032974255,1.875277778,-0.02446477
1.60E+15,5648,-2.75E-07,128,0,0,0,0,0,0,0,0,0,1,4,4,,20.6,32676,16393,32396,32720,34080,32758,-0.005615234,-0.999450684,-0.022705078,-2.926829268,80,-0.609756098,,-0.055085449,-9.804611206,-0.222736816,-0.051056911,1.395555556,-0.010636856
1.60E+15,5510,-9.47E-08,128,0,0,0,0,0,0,0,0,0,1,4,4,,20.8,34080,16386,32462,32743,33129,32783,0.080078125,-0.99987793,-0.018676758,-1.524390244,22.01219512,0.914634146,,0.785566406,-9.80880249,-0.183218994,-0.026592141,0.383990515,0.015955285
1.60E+15,5452,4.21E-07,128,0,0,0,0,0,0,0,0,0,1,4,4,,21,31822,16736,31843,32716,32759,32796,-0.057739258,-0.978515625,-0.05645752,-3.170731707,-0.548780488,1.707317073,,-0.566422119,-9.599238281,-0.553848267,-0.055311653,-0.009573171,0.029783198
1.60E+15,5579,1.56E-06,128,0,0,0,0,0,0,0,0,0,1,4,4,,21.2,32718,16467,32445,32773,32778,32766,-0.003051758,-0.994934082,-0.019714355,0.304878049,0.609756098,-0.12195122,,-0.029937744,-9.760303345,-0.193397827,0.005318428,0.010636856,-0.002127371
1.60E+15,5749,3.79E-06,128,0,0,0,0,0,0,0,0,0,1,4,4,,21.4,32595,16467,32793,32786,32769,32756,-0.010559082,-0.994934082,0.001525879,1.097560976,0.06097561,-0.731707317,,-0.103584595,-9.760303345,0.014968872,0.019146341,0.001063686,-0.012764228
1.60E+15,5751,7.78E-06,128,0,0,0,0,0,0,0,0,0,1,4,4,,21.6,33056,16406,32840,32746,32755,32804,0.017578125,-0.998657227,0.004394531,-1.341463415,-0.792682927,2.195121951,,0.172441406,-9.796827393,0.043110352,-0.023401084,-0.013827913,0.038292683
1.60E+15,5614,1.45E-05,128,0,0,0,32822,16583,32622,32761,32766,32767,1,4,4,,21.8,32598,16428,32732,32753,32770,32780,-0.010375977,-0.997314453,-0.002197266,-0.914634146,0.12195122,0.731707317,,-0.10178833,-9.783654785,-0.021555176,-0.015955285,0.002127371,0.012764228
1.60E+15,5553,2.50E-05,128,0,0,0,0,0,0,0,0,0,1,4,4,,22,33057,16390,32694,32775,32755,32750,0.01763916,-0.999633789,-0.004516602,0.426829268,-0.792682927,-1.097560976,,0.173040161,-9.806407471,-0.044307861,0.007445799,-0.013827913,-0.019146341
1.60E+15,5690,4.06E-05,128,0,0,0,0,0,0,0,0,0,1,4,4,,22.2,32820,16497,32688,32751,32760,32782,0.003173828,-0.993103027,-0.004882813,-1.036585366,-0.487804878,0.853658537,,0.031135254,-9.742340698,-0.047900391,-0.018082656,-0.008509485,0.014891599
1.60E+15,5854,6.19E-05,128,0,0,0,0,0,0,0,0,0,1,4,4,,22.4,33153,16434,33028,32741,32761,32764,0.023498535,-0.996948242,0.015869141,-1.646341463,-0.426829268,-0.243902439,,0.23052063,-9.780062256,0.15567627,-0.028719512,-0.007445799,-0.004254743
1.60E+15,5847,8.81E-05,128,0,0,0,0,0,0,0,0,0,1,4,4,,22.6,33131,16236,32962,32763,32755,32756,0.022155762,-1.009033203,0.01184082,-0.304878049,-0.792682927,-0.731707317,,0.217348022,-9.898615723,0.116158447,-0.005318428,-0.013827913,-0.012764228
1.60E+15,5698,1.15E-04,128,0,0,0,0,0,0,0,0,0,1,4,4,,22.8,32730,16527,32549,32757,32766,32752,-0.002319336,-0.991271973,-0.013366699,-0.670731707,-0.12195122,-0.975609756,,-0.022752686,-9.724378052,-0.131127319,-0.011700542,-0.002127371,-0.01701897
1.60E+15,5652,1.30E-04,128,0,0,0,0,0,0,0,0,0,1,4,4,,23,32635,16324,32673,32771,32759,32772,-0.008117676,-1.003662109,-0.00579834,0.182926829,-0.548780488,0.243902439,,-0.079634399,-9.845925293,-0.056881714,0.003191057,-0.009573171,0.004254743
1.60E+15,5803,1.10E-04,128,0,0,0,0,0,0,0,0,0,1,4,4,,23.2,32504,16280,32989,32784,32764,32762,-0.016113281,-1.006347656,0.01348877,0.975609756,-0.243902439,-0.365853659,,-0.158071289,-9.872270508,0.132324829,0.01701897,-0.004254743,-0.006382114
1.60E+15,5958,8.48E-06,128,0,0,0,0,0,0,0,0,0,1,4,4,,23.4,33037,16541,32485,32765,32767,32763,0.016418457,-0.99041748,-0.017272949,-0.182926829,-0.06097561,-0.304878049,,0.161065063,-9.715995483,-0.169447632,-0.003191057,-0.001063686,-0.005318428
1.60E+15,5944,-2.57E-04,128,0,0,0,0,0,0,0,0,0,1,4,4,,23.6,32810,16316,32757,32762,32762,32766,0.002563477,-1.004150391,-0.000671387,-0.365853659,-0.365853659,-0.12195122,,0.025147705,-9.850715332,-0.006586304,-0.006382114,-0.006382114,-0.002127371
1.60E+15,5791,-8.18E-04,128,0,0,0,0,0,0,0,0,0,1,4,4,,23.8,32763,16500,32603,32760,32763,32777,-0.000305176,-0.992919922,-0.010070801,-0.487804878,-0.304878049,0.548780488,,-0.002993774,-9.740544434,-0.098794556,-0.008509485,-0.005318428,0.009573171
1.60E+15,5748,-0.001880987,128,0,0,0,0,0,0,0,0,0,1,4,4,,24,32872,16444,32828,32765,32764,32755,0.006347656,-0.996337891,0.003662109,-0.182926829,-0.243902439,-0.792682927,,0.062270508,-9.774074707,0.035925293,-0.003191057,-0.004254743,-0.013827913
1.60E+15,5894,-0.003741752,128,0,0,0,32746,16389,32700,32764,32765,32766,1,4,4,,24.2,32664,16408,32570,32759,32765,32776,-0.006347656,-0.998535156,-0.012084961,-0.548780488,-0.182926829,0.487804878,,-0.062270508,-9.795629883,-0.118553467,-0.009573171,-0.003191057,0.008509485
1.60E+15,6051,-0.006795464,128,0,0,0,0,0,0,0,0,0,1,4,4,,24.4,32801,16411,32656,32768,32765,32763,0.00201416,-0.998352051,-0.006835938,0,-0.182926829,-0.304878049,,0.019758911,-9.793833618,-0.067060547,0,-0.003191057,-0.005318428
1.60E+15,6026,-0.011512525,128,0,0,0,0,0,0,0,0,0,1,4,4,,24.6,32720,16521,32429,32769,32762,32761,-0.002929688,-0.991638184,-0.020690918,0.06097561,-0.365853659,-0.426829268,,-0.028740234,-9.727970581,-0.202977905,0.001063686,-0.006382114,-0.007445799
1.60E+15,5883,-0.018347362,128,0,0,0,0,0,0,0,0,0,1,4,4,,24.8,32475,16438,32935,32774,32757,32760,-0.017883301,-0.996704102,0.010192871,0.365853659,-0.670731707,-0.487804878,,-0.175435181,-9.777667236,0.099992065,0.006382114,-0.011700542,-0.008509485
1.60E+15,5845,-0.027518412,128,0,0,0,0,0,0,0,0,0,1,4,4,,25,32481,16376,32456,32778,32763,32772,-0.01751709,-1.000488281,-0.019042969,0.609756098,-0.304878049,0.243902439,,-0.171842651,-9.814790039,-0.186811523,0.010636856,-0.005318428,0.004254743
1.60E+15,5997,-0.03856336,128,0,0,0,0,0,0,0,0,0,1,4,4,,25.2,33042,16626,32274,32739,32762,32781,0.016723633,-0.985229492,-0.030151367,-1.768292683,-0.365853659,0.792682927,,0.164058838,-9.665101318,-0.295784912,-0.030846883,-0.006382114,0.013827913
1.60E+15,6135,-0.04952807,128,0,0,0,0,0,0,0,0,0,1,4,4,,25.4,32624,16430,32224,32757,32769,32785,-0.008789063,-0.997192383,-0.033203125,-0.670731707,0.06097561,1.036585366,,-0.086220703,-9.782457275,-0.325722656,-0.011700542,0.001063686,0.018082656
1.60E+15,6114,-0.05559464,128,0,0,0,0,0,0,0,0,0,1,4,4,,25.6,32749,16353,32789,32774,32764,32764,-0.001159668,-1.00189209,0.001281738,0.365853659,-0.243902439,-0.243902439,,-0.011376343,-9.828561401,0.012573853,0.006382114,-0.004254743,-0.004254743
1.60E+15,5973,-0.04690395,128,0,0,0,0,0,0,0,0,0,1,4,4,,25.8,32703,16506,32605,32770,32765,32773,-0.003967285,-0.992553711,-0.00994873,0.12195122,-0.182926829,0.304878049,,-0.038919067,-9.736951904,-0.097597046,0.002127371,-0.003191057,0.005318428
1.60E+15,5944,-0.005302883,128,0,0,0,0,0,0,0,0,0,1,4,4,,26,32770,16412,32847,32771,32765,32756,0.00012207,-0.998291016,0.004821777,0.182926829,-0.182926829,-0.731707317,,0.00119751,-9.793234863,0.047301636,0.003191057,-0.003191057,-0.012764228
1.60E+15,5991,0.10021233,128,0,0,0,0,0,0,0,0,0,1,4,4,,26.2,32914,16341,32957,32762,32763,32757,0.008911133,-1.002624512,0.011535645,-0.365853659,-0.304878049,-0.670731707,,0.087418213,-9.83574646,0.113164673,-0.006382114,-0.005318428,-0.011700542
1.60E+15,6084,0.31941098,128,0,0,0,0,0,0,0,0,0,1,4,4,,26.4,32778,16409,32684,32764,32765,32768,0.000610352,-0.998474121,-0.005126953,-0.243902439,-0.182926829,0,,0.005987549,-9.795031128,-0.05029541,-0.004254743,-0.003191057,0
1.60E+15,6162,0.72774774,128,0,0,0,32830,16318,32718,32770,32765,32764,1,4,4,,26.6,32787,16488,32683,32768,32764,32764,0.001159668,-0.993652344,-0.005187988,0,-0.243902439,-0.243902439,,0.011376343,-9.747729492,-0.050894165,0,-0.004254743,-0.004254743
1.60E+15,6171,1.4331619,128,0,0,0,0,0,0,0,0,0,1,4,4,,26.8,32767,16383,32485,32765,32766,32759,-6.10E-05,-1.000061035,-0.017272949,-0.182926829,-0.12195122,-0.548780488,,-0.000598755,-9.810598755,-0.169447632,-0.003191057,-0.002127371,-0.009573171
1.60E+15,6158,2.5803406,128,0,0,0,0,0,0,0,0,0,1,4,4,,27,32624,16553,32740,32762,32764,32770,-0.008789063,-0.989685059,-0.001708984,-0.365853659,-0.243902439,0.12195122,,-0.086220703,-9.708810425,-0.016765137,-0.006382114,-0.004254743,0.002127371
1.60E+15,6176,4.3480997,128,0,0,0,0,0,0,0,0,0,1,4,4,,27.2,32894,16302,32848,32784,32764,32761,0.00769043,-1.005004883,0.004882813,0.975609756,-0.243902439,-0.426829268,,0.075443115,-9.8590979,0.047900391,0.01701897,-0.004254743,-0.007445799
1.60E+15,6190,6.9329286,128,0,0,0,0,0,0,0,0,0,1,4,4,,27.4,32639,16415,32700,32765,32806,32763,-0.007873535,-0.99810791,-0.004150391,-0.182926829,2.317073171,-0.304878049,,-0.07723938,-9.791438599,-0.040715332,-0.003191057,0.040420054,-0.005318428
1.60E+15,6192,10.50871,128,0,0,0,0,0,0,0,0,0,1,4,4,,27.6,33340,16441,33352,32733,33335,32760,0.034912109,-0.996520996,0.035644531,-2.134146341,34.57317073,-0.487804878,,0.342487793,-9.775870972,0.349672852,-0.037228997,0.603109756,-0.008509485
1.60E+15,6219,15.1498375,128,0,0,0,0,0,0,0,0,0,1,4,4,,27.8,32561,16424,32389,32738,33678,32775,-0.012634277,-0.997558594,-0.023132324,-1.829268293,55.48780488,0.426829268,,-0.123942261,-9.786049805,-0.226928101,-0.031910569,0.96795393,0.007445799
1.60E+15,6256,20.703852,128,0,0,0,0,0,0,0,0,0,1,4,4,,28,32921,16639,32597,32716,33971,32761,0.009338379,-0.984436035,-0.010437012,-3.170731707,73.35365854,-0.426829268,,0.091609497,-9.657317505,-0.102387085,-0.055311653,1.279613821,-0.007445799
1.60E+15,6271,26.602726,128,0,0,0,0,0,0,0,0,0,1,4,4,,28.2,33488,16384,33292,32741,34118,32741,0.043945313,-1,0.031982422,-1.646341463,82.31707317,-1.646341463,,0.431103516,-9.81,0.313747559,-0.028719512,1.43597561,-0.028719512
1.60E+15,6244,31.6125,128,0,0,0,0,0,0,0,0,0,1,4,4,,28.4,32777,16319,33225,32712,33983,32735,0.000549316,-1.003967285,0.027893066,-3.414634146,74.08536585,-2.012195122,,0.005388794,-9.848919067,0.273630981,-0.059566396,1.292378049,-0.035101626
1.60E+15,6245,33.54304,128,0,0,0,0,0,0,0,0,0,1,4,4,,28.6,32755,16488,33001,32740,33563,32755,-0.000793457,-0.993652344,0.014221191,-1.707317073,48.47560976,-0.792682927,,-0.007783813,-9.747729492,0.139509888,-0.029783198,0.845630081,-0.013827913
1.60E+15,6300,28.976492,128,0,0,0,0,0,0,0,0,0,1,4,4,,28.8,33092,16216,33417,32765,33659,32741,0.019775391,-1.010253906,0.039611816,-0.182926829,54.32926829,-1.646341463,,0.193996582,-9.91059082,0.388591919,-0.003191057,0.947743902,-0.028719512
1.60E+15,6350,13.123197,128,0,0,0,32793,16549,32677,32760,32766,32766,1,4,4,,29,32875,16434,32851,32736,33128,32763,0.006530762,-0.996948242,0.005065918,-1.951219512,21.95121951,-0.304878049,,0.064066772,-9.780062256,0.049696655,-0.03403794,0.382926829,-0.005318428
1.60E+15,6345,-20.032146,128,0,0,0,0,0,0,0,0,0,1,4,4,,29.2,32692,16600,32599,32755,32760,32765,-0.004638672,-0.986816406,-0.010314941,-0.792682927,-0.487804878,-0.182926829,,-0.045505371,-9.680668945,-0.101189575,-0.013827913,-0.008509485,-0.003191057
1.60E+15,6302,-77.09889,128,0,0,0,0,0,0,0,0,0,1,4,4,,29.4,32611,16377,32869,32758,32762,32768,-0.00958252,-1.000427246,0.006164551,-0.609756098,-0.365853659,0,,-0.094004517,-9.814191284,0.060474243,-0.010636856,-0.006382114,0
1.60E+15,6319,-164.00037,128,0,0,0,0,0,0,0,0,0,1,4,4,,29.6,32902,16493,32899,32761,32766,32778,0.008178711,-0.993347168,0.007995605,-0.426829268,-0.12195122,0.609756098,,0.080233154,-9.744735718,0.07843689,-0.007445799,-0.002127371,0.010636856
1.60E+15,6370,-284.0333,128,0,0,0,0,0,0,0,0,0,1,4,4,,29.8,32837,16425,33072,32774,32806,32787,0.004211426,-0.997497559,0.018554688,0.365853659,2.317073171,1.158536585,,0.041314087,-9.78545105,0.182021484,0.006382114,0.040420054,0.020210027
1.60E+15,6423,-435.56085,128,0,0,0,0,0,0,0,0,0,1,4,4,,30,32750,16381,32954,32775,32763,32774,-0.001098633,-1.000183105,0.011352539,0.426829268,-0.304878049,0.365853659,,-0.010777588,-9.811796265,0.111368408,0.007445799,-0.005318428,0.006382114
1.60E+15,6408,-610.05597,128,0,0,0,0,0,0,0,0,0,1,4,4,,30.2,32637,16488,32904,32772,32766,32764,-0.007995605,-0.993652344,0.008300781,0.243902439,-0.12195122,-0.243902439,,-0.07843689,-9.747729492,0.081430664,0.004254743,-0.002127371,-0.004254743
1.60E+15,6376,-791.571,128,0,0,0,0,0,0,0,0,0,1,4,4,,30.4,32872,16378,32853,32762,32765,32766,0.006347656,-1.000366211,0.005187988,-0.365853659,-0.182926829,-0.12195122,,0.062270508,-9.813592529,0.050894165,-0.006382114,-0.003191057,-0.002127371
1.60E+15,6398,-958.6634,128,0,0,0,0,0,0,0,0,0,1,4,4,,30.6,32877,16363,32876,32762,32792,32767,0.006652832,-1.001281738,0.006591797,-0.365853659,1.463414634,-0.06097561,,0.065264282,-9.822573853,0.064665527,-0.006382114,0.025528455,-0.001063686
1.60E+15,6455,-1088.9794,128,0,0,0,0,0,0,0,0,0,1,4,4,,30.8,32977,16482,32857,32757,32769,32767,0.012756348,-0.994018555,0.005432129,-0.670731707,0.06097561,-0.06097561,,0.125139771,-9.751322021,0.053289185,-0.011700542,0.001063686,-0.001063686
1.60E+15,6495,-1165.0868,128,0,0,0,0,0,0,0,0,0,1,4,4,,31,32891,16380,32802,32769,32766,32769,0.007507324,-1.000244141,0.002075195,0.06097561,-0.12195122,0.06097561,,0.073646851,-9.81239502,0.020357666,0.001063686,-0.002127371,0.001063686
1.60E+15,6477,-1178.8422,128,0,0,0,0,0,0,0,0,0,1,4,4,,31.2,32915,16461,32926,32761,32763,32763,0.008972168,-0.995300293,0.009643555,-0.426829268,-0.304878049,-0.304878049,,0.088016968,-9.763895874,0.094603271,-0.007445799,-0.005318428,-0.005318428
1.60E+15,6448,-1132.7021,128,0,0,0,32761,16479,32636,32760,32764,32766,1,4,4,,31.4,32797,16466,32777,32757,32758,32771,0.00177002,-0.994995117,0.000549316,-0.670731707,-0.609756098,0.182926829,,0.017363892,-9.7609021,0.005388794,-0.011700542,-0.010636856,0.003191057
1.60E+15,6477,-1037.9685,128,0,0,0,0,0,0,0,0,0,1,4,4,,31.6,33124,16412,32778,32775,32584,32772,0.021728516,-0.998291016,0.000610352,0.426829268,-11.2195122,0.243902439,,0.213156738,-9.793234863,0.005987549,0.007445799,-0.195718157,0.004254743
1.60E+15,6536,-911.01825,128,0,0,0,0,0,0,0,0,0,1,4,4,,31.8,32909,16511,32624,32782,32105,32777,0.008605957,-0.992248535,-0.008789063,0.853658537,-40.42682927,0.548780488,,0.084424438,-9.73395813,-0.086220703,0.014891599,-0.705223577,0.009573171
1.60E+15,6564,-769.0635,128,0,0,0,0,0,0,0,0,0,1,4,4,,32,33214,16370,32811,32784,31710,32769,0.02722168,-1.000854492,0.002624512,0.975609756,-64.51219512,0.06097561,,0.267044678,-9.818382568,0.02574646,0.01701897,-1.125379404,0.001063686
1.60E+15,6535,-626.92944,128,0,0,0,0,0,0,0,0,0,1,4,4,,32.2,33138,16307,33447,32799,31226,32776,0.022583008,-1.004699707,0.041442871,1.890243902,-94.02439024,0.487804878,,0.221539307,-9.856104126,0.406554565,0.032974255,-1.640203252,0.008509485
1.60E+15,6511,-495.4049,128,0,0,0,0,0,0,0,0,0,1,4,4,,32.4,33203,16627,32815,32779,31013,32761,0.026550293,-0.985168457,0.002868652,0.670731707,-107.0121951,-0.426829268,,0.260458374,-9.664502563,0.028141479,0.011700542,-1.866768293,-0.007445799
1.60E+15,6540,-380.92023,128,0,0,0,0,0,0,0,0,0,1,4,4,,32.6,32459,16177,34207,32794,31035,32785,-0.018859863,-1.012634277,0.08782959,1.585365854,-105.6707317,1.036585366,,-0.185015259,-9.933942261,0.861608276,0.027655827,-1.843367209,0.018082656
1.60E+15,6600,-286.06906,128,0,0,0,0,0,0,0,0,0,1,4,4,,32.8,32981,16551,32422,32783,31623,32778,0.013000488,-0.989807129,-0.021118164,0.914634146,-69.81707317,0.609756098,,0.12753479,-9.710007935,-0.207169189,0.015955285,-1.217920054,0.010636856
1.60E+15,6627,-210.58311,128,0,0,0,0,0,0,0,0,0,1,4,4,,33,32989,16348,32926,32787,32772,32742,0.01348877,-1.002197266,0.009643555,1.158536585,0.243902439,-1.585365854,,0.132324829,-9.831555176,0.094603271,0.020210027,0.004254743,-0.027655827
1.60E+15,6603,-152.4438,128,0,0,0,0,0,0,0,0,0,1,4,4,,33.2,32754,16451,32343,32783,32753,32760,-0.000854492,-0.995910645,-0.025939941,0.914634146,-0.914634146,-0.487804878,,-0.008382568,-9.769883423,-0.254470825,0.015955285,-0.015955285,-0.008509485
1.60E+15,6577,-108.84593,128,0,0,0,0,0,0,0,0,0,1,4,4,,33.4,32885,16514,32301,32754,32641,32749,0.007141113,-0.99206543,-0.028503418,-0.853658537,-7.743902439,-1.158536585,,0.070054321,-9.732161865,-0.27961853,-0.014891599,-0.135088076,-0.020210027
1.60E+15,6603,-76.8456,128,0,0,0,0,0,0,0,0,0,1,4,4,,33.6,32585,16329,33118,32794,32762,32801,-0.011169434,-1.003356934,0.021362305,1.585365854,-0.365853659,2.012195122,,-0.109572144,-9.842931519,0.209564209,0.027655827,-0.006382114,0.035101626
1.60E+15,6667,-53.711624,128,0,0,0,32732,16283,32749,32768,32765,32767,1,4,4,,33.8,32457,16431,32687,32762,32765,32768,-0.018981934,-0.997131348,-0.004943848,-0.365853659,-0.182926829,0,,-0.186212769,-9.781858521,-0.048499146,-0.006382114,-0.003191057,0
1.60E+15,6693,-37.10476,128,0,0,0,0,0,0,0,0,0,1,4,4,,34,32827,16406,32769,32759,32766,32761,0.003601074,-0.998657227,6.10E-05,-0.548780488,-0.12195122,-0.426829268,,0.035326538,-9.796827393,0.000598755,-0.009573171,-0.002127371,-0.007445799
1.60E+15,6669,-25.170511,128,0,0,0,0,0,0,0,0,0,1,4,4,,34.2,32840,16418,32654,32768,32765,32765,0.004394531,-0.997924805,-0.006958008,0,-0.182926829,-0.182926829,,0.043110352,-9.789642334,-0.068258057,0,-0.003191057,-0.003191057
1.60E+15,6640,-16.549652,128,0,0,0,0,0,0,0,0,0,1,4,4,,34.4,32820,16458,32694,32761,32765,32767,0.003173828,-0.995483398,-0.004516602,-0.426829268,-0.182926829,-0.06097561,,0.031135254,-9.765692139,-0.044307861,-0.007445799,-0.003191057,-0.001063686
1.60E+15,6670,-10.296646,128,0,0,0,0,0,0,0,0,0,1,4,4,,34.6,32778,16396,32718,32763,32765,32767,0.000610352,-0.999267578,-0.003051758,-0.304878049,-0.182926829,-0.06097561,,0.005987549,-9.802814941,-0.029937744,-0.005318428,-0.003191057,-0.001063686
1.60E+15,6729,-5.749264,128,0,0,0,0,0,0,0,0,0,1,4,4,,34.8,32823,16418,32679,32765,32763,32766,0.003356934,-0.997924805,-0.005432129,-0.182926829,-0.304878049,-0.12195122,,0.032931519,-9.789642334,-0.053289185,-0.003191057,-0.005318428,-0.002127371
1.60E+15,6750,-2.4264896,128,0,0,0,0,0,0,0,0,0,1,4,4,,35,32790,16432,32712,32764,32765,32766,0.001342773,-0.997070313,-0.003417969,-0.243902439,-0.182926829,-0.12195122,,0.013172607,-9.781259766,-0.033530273,-0.004254743,-0.003191057,-0.002127371
1.60E+15,6728,0.009998429,128,0,0,0,0,0,0,0,0,0,1,4,4,,35.2,32764,16370,32864,32760,32767,32772,-0.000244141,-1.000854492,0.005859375,-0.487804878,-0.06097561,0.243902439,,-0.00239502,-9.818382568,0.057480469,-0.008509485,-0.001063686,0.004254743
1.60E+15,6697,1.768576,128,0,0,0,0,0,0,0,0,0,1,4,4,,35.4,32808,16522,32539,32770,32764,32760,0.002441406,-0.991577148,-0.013977051,0.12195122,-0.243902439,-0.487804878,,0.023950195,-9.727371826,-0.137114868,0.002127371,-0.004254743,-0.008509485
1.60E+15,6720,2.968604,128,0,0,0,0,0,0,0,0,0,1,4,4,,35.6,32862,16383,32727,32765,32765,32767,0.005737305,-1.000061035,-0.002502441,-0.182926829,-0.182926829,-0.06097561,,0.056282959,-9.810598755,-0.02454895,-0.003191057,-0.003191057,-0.001063686
1.60E+15,6786,3.7067006,128,0,0,0,0,0,0,0,0,0,1,4,4,,35.8,32728,16434,32652,32763,32764,32769,-0.002441406,-0.996948242,-0.007080078,-0.304878049,-0.243902439,0.06097561,,-0.023950195,-9.780062256,-0.069455566,-0.005318428,-0.004254743,0.001063686
1.60E+15,6813,4.092856,128,0,0,0,0,0,0,0,0,0,1,4,4,,36,32804,16440,32733,32762,32765,32766,0.002197266,-0.996582031,-0.00213623,-0.365853659,-0.182926829,-0.12195122,,0.021555176,-9.776469727,-0.020956421,-0.006382114,-0.003191057,-0.002127371
1.60E+15,6784,4.2278504,128,0,0,0,32779,16486,32716,32763,32765,32766,1,4,4,,36.2,32797,16427,32565,32762,32766,32766,0.00177002,-0.997375488,-0.012390137,-0.365853659,-0.12195122,-0.12195122,,0.017363892,-9.78425354,-0.121547241,-0.006382114,-0.002127371,-0.002127371
1.60E+15,6762,4.1659365,128,0,0,0,0,0,0,0,0,0,1,4,4,,36.4,32826,16437,32760,32769,32764,32768,0.003540039,-0.996765137,-0.000488281,0.06097561,-0.243902439,0,,0.034727783,-9.778265991,-0.004790039,0.001063686,-0.004254743,0
1.60E+15,6790,3.923758,128,0,0,0,0,0,0,0,0,0,1,4,4,,36.6,32710,16462,32677,32757,32766,32768,-0.003540039,-0.995239258,-0.005554199,-0.670731707,-0.12195122,0,,-0.034727783,-9.763297119,-0.054486694,-0.011700542,-0.002127371,0
1.60E+15,6848,3.5307887,128,0,0,0,0,0,0,0,0,0,1,4,4,,36.8,32796,16374,32696,32767,32765,32765,0.001708984,-1.000610352,-0.004394531,-0.06097561,-0.182926829,-0.182926829,,0.016765137,-9.815987549,-0.043110352,-0.001063686,-0.003191057,-0.003191057
1.60E+15,6867,3.056231,128,0,0,0,0,0,0,0,0,0,1,4,4,,37,32767,16393,32674,32765,32766,32766,-6.10E-05,-0.999450684,-0.005737305,-0.182926829,-0.12195122,-0.12195122,,-0.000598755,-9.804611206,-0.056282959,-0.003191057,-0.002127371,-0.002127371
1.60E+15,6833,2.5787423,128,0,0,0,0,0,0,0,0,0,1,4,4,,37.2,32781,16480,32685,32761,32766,32766,0.000793457,-0.994140625,-0.005065918,-0.426829268,-0.12195122,-0.12195122,,0.007783813,-9.752519531,-0.049696655,-0.007445799,-0.002127371,-0.002127371
1.60E+15,6804,2.1435292,128,0,0,0,0,0,0,0,0,0,1,4,4,,37.4,32765,16279,32751,32768,32764,32766,-0.000183105,-1.006408691,-0.001037598,0,-0.243902439,-0.12195122,,-0.001796265,-9.872869263,-0.010178833,0,-0.004254743,-0.002127371
1.60E+15,6847,1.7656956,128,0,0,0,0,0,0,0,0,0,1,4,4,,37.6,32807,16578,32667,32764,32766,32767,0.002380371,-0.98815918,-0.006164551,-0.243902439,-0.12195122,-0.06097561,,0.02335144,-9.693841553,-0.060474243,-0.004254743,-0.002127371,-0.001063686
1.60E+15,6904,1.4698796,128,0,0,0,0,0,0,0,0,0,1,4,4,,37.8,32781,16558,32650,32761,32764,32767,0.000793457,-0.989379883,-0.007202148,-0.426829268,-0.243902439,-0.06097561,,0.007783813,-9.70581665,-0.070653076,-0.007445799,-0.004254743,-0.001063686
1.60E+15,6920,1.3028499,128,0,0,0,0,0,0,0,0,0,1,4,4,,38,32761,16302,32736,32767,32764,32765,-0.000427246,-1.005004883,-0.001953125,-0.06097561,-0.243902439,-0.182926829,,-0.004191284,-9.8590979,-0.019160156,-0.001063686,-0.004254743,-0.003191057
1.60E+15,6897,1.2943885,128,0,0,0,0,0,0,0,0,0,1,4,4,,38.2,32811,16553,32643,32762,32765,32767,0.002624512,-0.989685059,-0.007629395,-0.365853659,-0.182926829,-0.06097561,,0.02574646,-9.708810425,-0.07484436,-0.006382114,-0.003191057,-0.001063686
1.60E+15,6869,1.4170002,128,0,0,0,0,0,0,0,0,0,1,4,4,,38.4,32813,16314,32776,32766,32764,32764,0.002746582,-1.004272461,0.000488281,-0.12195122,-0.243902439,-0.243902439,,0.02694397,-9.851912842,0.004790039,-0.002127371,-0.004254743,-0.004254743
1.60E+15,6900,1.601305,128,0,0,0,32799,16539,32637,32759,32765,32768,1,4,4,,38.6,32797,16336,32751,32768,32764,32767,0.00177002,-1.002929688,-0.001037598,0,-0.243902439,-0.06097561,,0.017363892,-9.838740234,-0.010178833,0,-0.004254743,-0.001063686
1.60E+15,6962,1.7914093,128,0,0,0,0,0,0,0,0,0,1,4,4,,38.8,32781,16532,32658,32760,32765,32766,0.000793457,-0.990966797,-0.006713867,-0.487804878,-0.182926829,-0.12195122,,0.007783813,-9.721384277,-0.065863037,-0.008509485,-0.003191057,-0.002127371
1.60E+15,6978,1.9731867,128,0,0,0,0,0,0,0,0,0,1,4,4,,39,32766,16307,32741,32766,32765,32764,-0.00012207,-1.004699707,-0.001647949,-0.12195122,-0.182926829,-0.243902439,,-0.00119751,-9.856104126,-0.016166382,-0.002127371,-0.003191057,-0.004254743
1.60E+15,6943,2.1481133,128,0,0,0,0,0,0,0,0,0,1,4,4,,39.2,0,0,0,0,0,0,0,0,0,0,0,0,,0,0,0,0,0,0
1.60E+15,6921,2.2998679,128,0,0,0,0,0,0,0,0,0,1,4,4,,,,,,,,,,,,,,,,0,0,0,0,0,0
1.60E+15,6953,2.4054148,128,0,0,0,0,0,0,0,0,0,1,4,4,,,,,,,,,,,,,,,,,,,,,
1.60E+15,7007,2.4734848,128,0,0,0,0,0,0,0,0,0,1,4,4,,,,,,,,,,,,,,,,,,,,,
1.60E+15,7026,2.548916,128,0,0,0,0,0,0,0,0,0,1,4,4,,,,,,,,,,,,,,,,,,,,,
1.60E+15,6988,2.6662164,128,0,0,0,0,0,0,0,0,0,1,4,4,,,,,,,,,,,,,,,,,,,,,
1.60E+15,6974,2.807691,128,0,0,0,0,0,0,0,0,0,1,4,4,,,,,,,,,,,,,,,,,,,,,
1.60E+15,7011,2.9203923,128,0,0,0,0,0,0,0,0,0,1,4,4,,,,,,,,,,,,,,,,,,,,,
1.60E+15,7065,2.9705448,128,0,0,0,0,0,0,0,0,0,1,4,4,,,,,,,,,,,,,,,,,,,,,
1.60E+15,7076,2.9667664,128,0,0,0,32764,16313,32674,32765,32765,32763,1,4,4,,,,,,,,,,,,,,,,,,,,,
1.60E+15,7044,2.9287982,128,0,0,0,0,0,0,0,0,0,1,4,4,,,,,,,,,,,,,,,,,,,,,
1.60E+15,7020,2.8529127,128,0,0,0,0,0,0,0,0,0,1,4,4,,,,,,,,,,,,,,,,,,,,,
1.60E+15,7051,2.725349,128,0,0,0,0,0,0,0,0,0,1,4,4,,,,,,,,,,,,,,,,,,,,,
1.60E+15,7115,2.5628743,128,0,0,0,0,0,0,0,0,0,1,4,4,,,,,,,,,,,,,,,,,,,,,
1.60E+15,7122,2.4169295,128,0,0,0,0,0,0,0,0,0,1,4,4,,,,,,,,,,,,,,,,,,,,,
1.60E+15,7092,2.3270252,128,0,0,0,0,0,0,0,0,0,1,4,4,,,,,,,,,,,,,,,,,,,,,
1.60E+15,7069,2.2818527,128,0,0,0,0,0,0,0,0,0,1,4,4,,,,,,,,,,,,,,,,,,,,,
1.60E+15,7103,2.2382445,128,0,0,0,0,0,0,0,0,0,1,4,4,,,,,,,,,,,,,,,,,,,,,
1.60E+15,7147,2.1720266,128,0,0,0,0,0,0,0,0,0,1,4,4,,,,,,,,,,,,,,,,,,,,,
1.60E+15,7160,2.0943956,128,0,0,0,0,0,0,0,0,0,1,4,4,,,,,,,,,,,,,,,,,,,,,
1.60E+15,7127,2.0183177,128,0,0,0,0,0,0,0,0,0,1,4,4,,,,,,,,,,,,,,,,,,,,,
1.60E+15,7121,1.9299182,128,0,0,0,32781,16376,32722,32768,32765,32767,1,4,4,,,,,,,,,,,,,,,,,,,,,
1.60E+15,7151,1.8095832,128,0,0,0,0,0,0,0,0,0,1,4,4,,,,,,,,,,,,,,,,,,,,,
1.60E+15,7198,1.6733724,128,0,0,0,0,0,0,0,0,0,1,4,4,,,,,,,,,,,,,,,,,,,,,
1.60E+15,7205,1.5719526,128,0,0,0,0,0,0,0,0,0,1,4,4,,,,,,,,,,,,,,,,,,,,,
1.60E+15,7172,1.5411408,128,0,0,0,0,0,0,0,0,0,1,4,4,,,,,,,,,,,,,,,,,,,,,
1.60E+15,7157,1.5663754,128,0,0,0,0,0,0,0,0,0,1,4,4,,,,,,,,,,,,,,,,,,,,,
1.60E+15,7193,1.6073662,128,0,0,0,0,0,0,0,0,0,1,4,4,,,,,,,,,,,,,,,,,,,,,
1.60E+15,7246,1.6490133,128,0,0,0,0,0,0,0,0,0,1,4,4,,,,,,,,,,,,,,,,,,,,,
1.60E+15,7249,1.7099795,128,0,0,0,0,0,0,0,0,0,1,4,4,,,,,,,,,,,,,,,,,,,,,
1.60E+15,7217,1.8010726,128,0,0,0,0,0,0,0,0,0,1,4,4,,,,,,,,,,,,,,,,,,,,,
1.60E+15,7200,1.8948066,128,0,0,0,0,0,0,0,0,0,1,4,4,,,,,,,,,,,,,,,,,,,,,
1.60E+15,7240,1.9499811,128,0,0,0,0,0,0,0,0,0,1,4,4,,,,,,,,,,,,,,,,,,,,,
1.60E+15,7283,1.9578344,128,0,0,0,32806,16566,32635,32759,32764,32766,1,4,4,,,,,,,,,,,,,,,,,,,,,
1.60E+15,7287,1.9461042,128,0,0,0,0,0,0,0,0,0,1,4,4,,,,,,,,,,,,,,,,,,,,,
1.60E+15,7257,1.9359013,128,0,0,0,0,0,0,0,0,0,1,4,4,,,,,,,,,,,,,,,,,,,,,
1.60E+15,7242,1.9123195,128,0,0,0,0,0,0,0,0,0,1,4,4,,,,,,,,,,,,,,,,,,,,,
1.60E+15,7281,1.8493907,128,0,0,0,0,0,0,0,0,0,1,4,4,,,,,,,,,,,,,,,,,,,,,
1.60E+15,7320,1.7536548,128,0,0,0,0,0,0,0,0,0,1,4,4,,,,,,,,,,,,,,,,,,,,,
1.60E+15,7327,1.6641134,128,0,0,0,0,0,0,0,0,0,1,4,4,,,,,,,,,,,,,,,,,,,,,
1.60E+15,7293,1.6066647,128,0,0,0,0,0,0,0,0,0,1,4,4,,,,,,,,,,,,,,,,,,,,,
1.60E+15,7280,1.5644791,128,0,0,0,0,0,0,0,0,0,1,4,4,,,,,,,,,,,,,,,,,,,,,
1.60E+15,7317,1.504901,128,0,0,0,0,0,0,0,0,0,1,4,4,,,,,,,,,,,,,,,,,,,,,
1.60E+15,7360,1.4263436,128,0,0,0,0,0,0,0,0,0,1,4,4,,,,,,,,,,,,,,,,,,,,,
1.60E+15,7355,1.3615022,128,0,0,0,0,0,0,0,0,0,1,4,4,,,,,,,,,,,,,,,,,,,,,
1.60E+15,7319,1.3349683,128,0,0,0,32774,16411,32727,32763,32765,32767,1,4,4,,,,,,,,,,,,,,,,,,,,,
1.60E+15,7315,1.3360273,128,0,0,0,0,0,0,0,0,0,1,4,4,,,,,,,,,,,,,,,,,,,,,
1.60E+15,7361,1.3437852,128,0,0,0,0,0,0,0,0,0,1,4,4,,,,,,,,,,,,,,,,,,,,,
1.60E+15,7398,1.3668369,128,0,0,0,0,0,0,0,0,0,1,4,4,,,,,,,,,,,,,,,,,,,,,
1.60E+15,7397,1.4392321,128,0,0,0,0,0,0,0,0,0,1,4,4,,,,,,,,,,,,,,,,,,,,,
1.60E+15,7363,1.5759685,128,0,0,0,0,0,0,0,0,0,1,4,4,,,,,,,,,,,,,,,,,,,,,
1.60E+15,7358,1.7495167,128,0,0,0,0,0,0,0,0,0,1,4,4,,,,,,,,,,,,,,,,,,,,,
1.60E+15,7395,1.9212409,128,0,0,0,0,0,0,0,0,0,1,4,4,,,,,,,,,,,,,,,,,,,,,
1.60E+15,7423,2.0855622,128,0,0,0,0,0,0,0,0,0,1,4,4,,,,,,,,,,,,,,,,,,,,,
1.60E+15,7429,2.2671547,128,0,0,0,0,0,0,0,0,0,1,4,4,,,,,,,,,,,,,,,,,,,,,
1.60E+15,7394,2.476447,128,0,0,0,0,0,0,0,0,0,1,4,4,,,,,,,,,,,,,,,,,,,,,
1.60E+15,7386,2.6861396,128,0,0,0,0,0,0,0,0,0,1,4,4,,,,,,,,,,,,,,,,,,,,,
1.60E+15,7422,2.8618357,128,0,0,0,32776,16301,32716,32767,32764,32765,1,4,4,,,,,,,,,,,,,,,,,,,,,
1.60E+15,7465,3.003606,128,0,0,0,0,0,0,0,0,0,1,4,4,,,,,,,,,,,,,,,,,,,,,
1.60E+15,7465,3.1400595,128,0,0,0,0,0,0,0,0,0,1,4,4,,,,,,,,,,,,,,,,,,,,,
1.60E+15,7432,3.2818298,128,0,0,0,0,0,0,0,0,0,1,4,4,,,,,,,,,,,,,,,,,,,,,
1.60E+15,7427,3.398543,128,0,0,0,0,0,0,0,0,0,1,4,4,,,,,,,,,,,,,,,,,,,,,
1.60E+15,7461,3.4518192,128,0,0,0,0,0,0,0,0,0,1,4,4,,,,,,,,,,,,,,,,,,,,,
1.60E+15,7503,3.4400935,128,0,0,0,0,0,0,0,0,0,1,4,4,,,,,,,,,,,,,,,,,,,,,
1.60E+15,7490,3.3948328,128,0,0,0,0,0,0,0,0,0,1,4,4,,,,,,,,,,,,,,,,,,,,,
1.60E+15,7451,3.334847,128,0,0,0,0,0,0,0,0,0,1,4,4,,,,,,,,,,,,,,,,,,,,,
1.60E+15,7453,3.2422342,128,0,0,0,0,0,0,0,0,0,1,4,4,,,,,,,,,,,,,,,,,,,,,
1.60E+15,7499,3.0913234,128,0,0,0,0,0,0,0,0,0,1,4,4,,,,,,,,,,,,,,,,,,,,,
1.60E+15,7531,2.8859315,128,0,0,0,0,0,0,0,0,0,1,4,4,,,,,,,,,,,,,,,,,,,,,
1.60E+15,7523,2.6485791,128,0,0,0,32828,16550,32650,32763,32765,32767,1,4,4,,,,,,,,,,,,,,,,,,,,,
1.60E+15,7488,2.374427,128,0,0,0,0,0,0,0,0,0,1,4,4,,,,,,,,,,,,,,,,,,,,,
1.60E+15,7487,2.0150378,128,0,0,0,0,0,0,0,0,0,1,4,4,,,,,,,,,,,,,,,,,,,,,
1.60E+15,7527,1.5165342,128,0,0,0,0,0,0,0,0,0,1,4,4,,,,,,,,,,,,,,,,,,,,,
1.60E+15,7553,0.85979015,128,0,0,0,0,0,0,0,0,0,1,4,4,,,,,,,,,,,,,,,,,,,,,
1.60E+15,7546,0.045693424,128,0,0,0,0,0,0,0,0,0,1,4,4,,,,,,,,,,,,,,,,,,,,,
1.60E+15,7520,-0.95687294,128,0,0,0,0,0,0,0,0,0,1,4,4,,,,,,,,,,,,,,,,,,,,,
1.60E+15,7519,-2.229328,128,0,0,0,0,0,0,0,0,0,1,4,4,,,,,,,,,,,,,,,,,,,,,
1.60E+15,7556,-3.8589964,128,0,0,0,0,0,0,0,0,0,1,4,4,,,,,,,,,,,,,,,,,,,,,
1.60E+15,7591,-5.881466,128,0,0,0,0,0,0,0,0,0,1,4,4,,,,,,,,,,,,,,,,,,,,,
1.60E+15,7570,-8.267019,128,0,0,0,0,0,0,0,0,0,1,4,4,,,,,,,,,,,,,,,,,,,,,
1.60E+15,7546,-10.939178,128,0,0,0,0,0,0,0,0,0,1,4,4,,,,,,,,,,,,,,,,,,,,,
1.60E+15,7548,-13.768254,128,0,0,0,32801,16499,32667,32758,32765,32767,1,4,4,,,,,,,,,,,,,,,,,,,,,
1.60E+15,7583,-16.528276,128,0,0,0,0,0,0,0,0,0,1,4,4,,,,,,,,,,,,,,,,,,,,,
1.60E+15,7629,-18.880184,128,0,0,0,0,0,0,0,0,0,1,4,4,,,,,,,,,,,,,,,,,,,,,
1.60E+15,7606,-20.441788,128,0,0,0,0,0,0,0,0,0,1,4,4,,,,,,,,,,,,,,,,,,,,,
1.60E+15,7564,-20.923067,128,0,0,0,0,0,0,0,0,0,1,4,4,,,,,,,,,,,,,,,,,,,,,
1.60E+15,7568,-20.238792,128,0,0,0,0,0,0,0,0,0,1,4,4,,,,,,,,,,,,,,,,,,,,,
1.60E+15,7618,-18.529861,128,0,0,0,0,0,0,0,0,0,1,4,4,,,,,,,,,,,,,,,,,,,,,
1.60E+15,7640,-16.0934,128,0,0,0,0,0,0,0,0,0,1,4,4,,,,,,,,,,,,,,,,,,,,,
1.60E+15,7625,-13.275982,128,0,0,0,0,0,0,0,0,0,1,4,4,,,,,,,,,,,,,,,,,,,,,
1.60E+15,7592,-10.388035,128,0,0,0,0,0,0,0,0,0,1,4,4,,,,,,,,,,,,,,,,,,,,,
1.60E+15,7602,-7.662932,128,0,0,0,0,0,0,0,0,0,1,4,4,,,,,,,,,,,,,,,,,,,,,
1.60E+15,7646,-5.2522807,128,0,0,0,0,0,0,0,0,0,1,4,4,,,,,,,,,,,,,,,,,,,,,
1.60E+15,7675,-3.2389257,128,0,0,0,32756,16300,32743,32769,32764,32766,1,4,4,,,,,,,,,,,,,,,,,,,,,
1.60E+15,7654,-1.6521214,128,0,0,0,0,0,0,0,0,0,1,4,4,,,,,,,,,,,,,,,,,,,,,
1.60E+15,7623,-0.47844055,128,0,0,0,0,0,0,0,0,0,1,4,4,,,,,,,,,,,,,,,,,,,,,
1.60E+15,7627,0.3270096,128,0,0,0,0,0,0,0,0,0,1,4,4,,,,,,,,,,,,,,,,,,,,,
1.60E+15,7671,0.8235486,128,0,0,0,0,0,0,0,0,0,1,4,4,,,,,,,,,,,,,,,,,,,,,
1.60E+15,7705,1.0679915,128,0,0,0,0,0,0,0,0,0,1,4,4,,,,,,,,,,,,,,,,,,,,,
1.60E+15,7688,1.1112443,128,0,0,0,0,0,0,0,0,0,1,4,4,,,,,,,,,,,,,,,,,,,,,
1.60E+15,7645,1.0086989,128,0,0,0,0,0,0,0,0,0,1,4,4,,,,,,,,,,,,,,,,,,,,,
1.60E+15,7646,0.8265633,128,0,0,0,0,0,0,0,0,0,1,4,4,,,,,,,,,,,,,,,,,,,,,
1.60E+15,7702,0.630611,128,0,0,0,0,0,0,0,0,0,1,4,4,,,,,,,,,,,,,,,,,,,,,
1.60E+15,7726,0.4672979,128,0,0,0,0,0,0,0,0,0,1,4,4,,,,,,,,,,,,,,,,,,,,,
1.60E+15,7703,0.35817674,128,0,0,0,0,0,0,0,0,0,1,4,4,,,,,,,,,,,,,,,,,,,,,
1.60E+15,7665,0.31063464,64,0,0,0,32779,16436,32721,32768,32764,32766,1,4,4,,,,,,,,,,,,,,,,,,,,,
1.60E+15,7933,0.32806876,64,0,0,0,0,0,0,0,0,0,1,4,4,,,,,,,,,,,,,,,,,,,,,
1.60E+15,7958,0.4062653,64,0,0,0,0,0,0,0,0,0,1,4,4,,,,,,,,,,,,,,,,,,,,,
1.60E+15,7970,0.52522,64,0,0,0,0,0,0,0,0,0,1,4,4,,,,,,,,,,,,,,,,,,,,,
1.60E+15,7962,0.65316796,64,0,0,0,0,0,0,0,0,0,1,4,4,,,,,,,,,,,,,,,,,,,,,
1.60E+15,7941,0.76190585,64,0,0,0,0,0,0,0,0,0,1,4,4,,,,,,,,,,,,,,,,,,,,,
1.60E+15,7941,0.83653986,64,0,0,0,0,0,0,0,0,0,1,4,4,,,,,,,,,,,,,,,,,,,,,
1.60E+15,7963,0.8707637,64,0,0,0,0,0,0,0,0,0,1,4,4,,,,,,,,,,,,,,,,,,,,,
1.60E+15,7980,0.8593413,64,0,0,0,0,0,0,0,0,0,1,4,4,,,,,,,,,,,,,,,,,,,,,
1.60E+15,7969,0.8021003,64,0,0,0,0,0,0,0,0,0,1,4,4,,,,,,,,,,,,,,,,,,,,,
1.60E+15,7957,0.71407276,64,0,0,0,0,0,0,0,0,0,1,4,4,,,,,,,,,,,,,,,,,,,,,
1.60E+15,7956,0.6242283,64,0,0,0,0,0,0,0,0,0,1,4,4,,,,,,,,,,,,,,,,,,,,,
1.60E+15,7979,0.5588863,64,0,0,0,32802,16590,32623,32758,32766,32767,1,4,4,,,,,,,,,,,,,,,,,,,,,
1.60E+15,7990,0.5271449,64,0,0,0,0,0,0,0,0,0,1,4,4,,,,,,,,,,,,,,,,,,,,,
1.60E+15,7982,0.52415216,64,0,0,0,0,0,0,0,0,0,1,4,4,,,,,,,,,,,,,,,,,,,,,
1.60E+15,7960,0.5454245,64,0,0,0,0,0,0,0,0,0,1,4,4,,,,,,,,,,,,,,,,,,,,,
1.60E+15,7963,0.59211797,64,0,0,0,0,0,0,0,0,0,1,4,4,,,,,,,,,,,,,,,,,,,,,
1.60E+15,7987,0.6609627,64,0,0,0,0,0,0,0,0,0,1,4,4,,,,,,,,,,,,,,,,,,,,,
1.60E+15,8002,0.73455364,64,0,0,0,0,0,0,0,0,0,1,4,4,,,,,,,,,,,,,,,,,,,,,
1.60E+15,7994,0.7880184,64,0,0,0,0,0,0,0,0,0,1,4,4,,,,,,,,,,,,,,,,,,,,,
1.60E+15,7974,0.8060979,64,0,0,0,0,0,0,0,0,0,1,4,4,,,,,,,,,,,,,,,,,,,,,
1.60E+15,7975,0.79043996,64,0,0,0,0,0,0,0,0,0,1,4,4,,,,,,,,,,,,,,,,,,,,,
1.60E+15,7996,0.7503612,64,0,0,0,0,0,0,0,0,0,1,4,4,,,,,,,,,,,,,,,,,,,,,
1.60E+15,8012,0.6920716,64,0,0,0,0,0,0,0,0,0,1,4,4,,,,,,,,,,,,,,,,,,,,,
1.60E+15,8000,0.62158936,64,0,0,0,32795,16327,32706,32767,32765,32766,1,4,4,,,,,,,,,,,,,,,,,,,,,
1.60E+15,7986,0.55481523,64,0,0,0,0,0,0,0,0,0,1,4,4,,,,,,,,,,,,,,,,,,,,,
1.60E+15,7988,0.51599044,64,0,0,0,0,0,0,0,0,0,1,4,4,,,,,,,,,,,,,,,,,,,,,
1.60E+15,8007,0.5204677,64,0,0,0,0,0,0,0,0,0,1,4,4,,,,,,,,,,,,,,,,,,,,,
1.60E+15,8022,0.55948186,64,0,0,0,0,0,0,0,0,0,1,4,4,,,,,,,,,,,,,,,,,,,,,
1.60E+15,8006,0.60496634,64,0,0,0,0,0,0,0,0,0,1,4,4,,,,,,,,,,,,,,,,,,,,,
1.60E+15,7988,0.62923187,64,0,0,0,0,0,0,0,0,0,1,4,4,,,,,,,,,,,,,,,,,,,,,
1.60E+15,8000,0.61807054,64,0,0,0,0,0,0,0,0,0,1,4,4,,,,,,,,,,,,,,,,,,,,,
1.60E+15,8021,0.5683069,64,0,0,0,0,0,0,0,0,0,1,4,4,,,,,,,,,,,,,,,,,,,,,
1.60E+15,8035,0.48230615,64,0,0,0,0,0,0,0,0,0,1,4,4,,,,,,,,,,,,,,,,,,,,,
1.60E+15,8015,0.3718552,64,0,0,0,0,0,0,0,0,0,1,4,4,,,,,,,,,,,,,,,,,,,,,
1.60E+15,7997,0.26442602,64,0,0,0,0,0,0,0,0,0,1,4,4,,,,,,,,,,,,,,,,,,,,,
1.60E+15,8008,0.19553009,64,0,0,0,32803,16426,32687,32762,32764,32766,1,4,4,,,,,,,,,,,,,,,,,,,,,
1.60E+15,8034,0.18742964,64,0,0,0,0,0,0,0,0,0,1,4,4,,,,,,,,,,,,,,,,,,,,,
1.60E+15,8038,0.23485924,64,0,0,0,0,0,0,0,0,0,1,4,4,,,,,,,,,,,,,,,,,,,,,
1.60E+15,8021,0.31302655,64,0,0,0,0,0,0,0,0,0,1,4,4,,,,,,,,,,,,,,,,,,,,,
1.60E+15,8006,0.39715672,64,0,0,0,0,0,0,0,0,0,1,4,4,,,,,,,,,,,,,,,,,,,,,
1.60E+15,8019,0.47198153,64,0,0,0,0,0,0,0,0,0,1,4,4,,,,,,,,,,,,,,,,,,,,,
1.60E+15,8045,0.52597237,64,0,0,0,0,0,0,0,0,0,1,4,4,,,,,,,,,,,,,,,,,,,,,
1.60E+15,8051,0.54561824,64,0,0,0,0,0,0,0,0,0,1,4,4,,,,,,,,,,,,,,,,,,,,,
1.60E+15,8029,0.52331656,64,0,0,0,0,0,0,0,0,0,1,4,4,,,,,,,,,,,,,,,,,,,,,
1.60E+15,8016,0.47021285,64,0,0,0,0,0,0,0,0,0,1,4,4,,,,,,,,,,,,,,,,,,,,,
1.60E+15,8029,0.41462088,64,0,0,0,0,0,0,0,0,0,1,4,4,,,,,,,,,,,,,,,,,,,,,
1.60E+15,8049,0.38379318,64,0,0,0,0,0,0,0,0,0,1,4,4,,,,,,,,,,,,,,,,,,,,,
1.60E+15,8054,0.3878982,64,0,0,0,32760,16281,32748,32765,32763,32767,1,4,4,,,,,,,,,,,,,,,,,,,,,
1.60E+15,8033,0.42132148,64,0,0,0,0,0,0,0,0,0,1,4,4,,,,,,,,,,,,,,,,,,,,,
1.60E+15,8020,0.47399208,64,0,0,0,0,0,0,0,0,0,1,4,4,,,,,,,,,,,,,,,,,,,,,
1.60E+15,8037,0.5351735,64,0,0,0,0,0,0,0,0,0,1,4,4,,,,,,,,,,,,,,,,,,,,,
1.60E+15,8058,0.5871054,64,0,0,0,0,0,0,0,0,0,1,4,4,,,,,,,,,,,,,,,,,,,,,
1.60E+15,8059,0.6040867,64,0,0,0,0,0,0,0,0,0,1,4,4,,,,,,,,,,,,,,,,,,,,,
1.60E+15,8043,0.56604564,64,0,0,0,0,0,0,0,0,0,1,4,4,,,,,,,,,,,,,,,,,,,,,
1.60E+15,8028,0.47418565,64,0,0,0,0,0,0,0,0,0,1,4,4,,,,,,,,,,,,,,,,,,,,,
1.60E+15,8045,0.35015717,64,0,0,0,0,0,0,0,0,0,1,4,4,,,,,,,,,,,,,,,,,,,,,
1.60E+15,8063,0.21913776,64,0,0,0,0,0,0,0,0,0,1,4,4,,,,,,,,,,,,,,,,,,,,,
1.60E+15,8066,0.09678258,64,0,0,0,0,0,0,0,0,0,1,4,4,,,,,,,,,,,,,,,,,,,,,
1.60E+15,8046,-0.005603304,64,0,0,0,0,0,0,0,0,0,1,4,4,,,,,,,,,,,,,,,,,,,,,
1.60E+15,8035,-0.06767676,64,0,0,0,32790,16493,32613,32764,32766,32766,1,4,4,,,,,,,,,,,,,,,,,,,,,
1.60E+15,8047,-0.059252165,64,0,0,0,0,0,0,0,0,0,1,4,4,,,,,,,,,,,,,,,,,,,,,
1.60E+15,8069,0.04493653,64,0,0,0,0,0,0,0,0,0,1,4,4,,,,,,,,,,,,,,,,,,,,,
1.60E+15,8075,0.2518857,64,0,0,0,0,0,0,0,0,0,1,4,4,,,,,,,,,,,,,,,,,,,,,
1.60E+15,8055,0.55220664,64,0,0,0,0,0,0,0,0,0,1,4,4,,,,,,,,,,,,,,,,,,,,,
1.60E+15,8041,0.9306611,64,0,0,0,0,0,0,0,0,0,1,4,4,,,,,,,,,,,,,,,,,,,,,
1.60E+15,8058,1.3705025,64,0,0,0,0,0,0,0,0,0,1,4,4,,,,,,,,,,,,,,,,,,,,,
1.60E+15,8081,1.8497136,64,0,0,0,0,0,0,0,0,0,1,4,4,,,,,,,,,,,,,,,,,,,,,
1.60E+15,8082,2.3415775,64,0,0,0,0,0,0,0,0,0,1,4,4,,,,,,,,,,,,,,,,,,,,,
1.60E+15,8062,2.8255472,64,0,0,0,0,0,0,0,0,0,1,4,4,,,,,,,,,,,,,,,,,,,,,
1.60E+15,8049,3.2976005,64,0,0,0,0,0,0,0,0,0,1,4,4,,,,,,,,,,,,,,,,,,,,,
1.60E+15,8068,3.7659605,64,0,0,0,0,0,0,0,0,0,1,4,4,,,,,,,,,,,,,,,,,,,,,
1.60E+15,8086,4.2353554,64,0,0,0,32807,16542,32650,32761,32764,32767,1,4,4,,,,,,,,,,,,,,,,,,,,,
1.60E+15,8087,4.6982007,64,0,0,0,0,0,0,0,0,0,1,4,4,,,,,,,,,,,,,,,,,,,,,
1.60E+15,8063,5.14253,64,0,0,0,0,0,0,0,0,0,1,4,4,,,,,,,,,,,,,,,,,,,,,
1.60E+15,8055,5.5647173,64,0,0,0,0,0,0,0,0,0,1,4,4,,,,,,,,,,,,,,,,,,,,,
1.60E+15,8073,5.969322,64,0,0,0,0,0,0,0,0,0,1,4,4,,,,,,,,,,,,,,,,,,,,,
1.60E+15,8093,6.3567467,64,0,0,0,0,0,0,0,0,0,1,4,4,,,,,,,,,,,,,,,,,,,,,
1.60E+15,8092,6.715831,64,0,0,0,0,0,0,0,0,0,1,4,4,,,,,,,,,,,,,,,,,,,,,
1.60E+15,8070,7.031257,64,0,0,0,0,0,0,0,0,0,1,4,4,,,,,,,,,,,,,,,,,,,,,
1.60E+15,8065,7.2950487,64,0,0,0,0,0,0,0,0,0,1,4,4,,,,,,,,,,,,,,,,,,,,,
1.60E+15,8084,7.5069575,64,0,0,0,0,0,0,0,0,0,1,4,4,,,,,,,,,,,,,,,,,,,,,
1.60E+15,8102,7.664991,64,0,0,0,0,0,0,0,0,0,1,4,4,,,,,,,,,,,,,,,,,,,,,
1.60E+15,8097,7.7615914,64,0,0,0,0,0,0,0,0,0,1,4,4,,,,,,,,,,,,,,,,,,,,,
1.60E+15,8075,7.793335,64,0,0,0,32773,16285,32712,32764,32764,32767,1,4,4,,,,,,,,,,,,,,,,,,,,,
1.60E+15,8072,7.77258,64,0,0,0,0,0,0,0,0,0,1,4,4,,,,,,,,,,,,,,,,,,,,,
1.60E+15,8087,7.7259955,64,0,0,0,0,0,0,0,0,0,1,4,4,,,,,,,,,,,,,,,,,,,,,
1.60E+15,8109,7.681104,64,0,0,0,0,0,0,0,0,0,1,4,4,,,,,,,,,,,,,,,,,,,,,
1.60E+15,8105,7.656537,64,0,0,0,0,0,0,0,0,0,1,4,4,,,,,,,,,,,,,,,,,,,,,
1.60E+15,8086,7.664099,64,0,0,0,0,0,0,0,0,0,1,4,4,,,,,,,,,,,,,,,,,,,,,
1.60E+15,8075,7.712659,64,0,0,0,0,0,0,0,0,0,1,4,4,,,,,,,,,,,,,,,,,,,,,
1.60E+15,8095,7.8021884,64,0,0,0,0,0,0,0,0,0,1,4,4,,,,,,,,,,,,,,,,,,,,,
1.60E+15,8111,7.913844,64,0,0,0,0,0,0,0,0,0,1,4,4,,,,,,,,,,,,,,,,,,,,,
1.60E+15,8107,8.012648,64,0,0,0,0,0,0,0,0,0,1,4,4,,,,,,,,,,,,,,,,,,,,,
1.60E+15,8091,8.066105,64,0,0,0,0,0,0,0,0,0,1,4,4,,,,,,,,,,,,,,,,,,,,,
1.60E+15,8084,8.062281,64,0,0,0,0,0,0,0,0,0,1,4,4,,,,,,,,,,,,,,,,,,,,,
1.60E+15,8104,8.011333,64,0,0,0,32786,16392,32659,32766,32765,32768,1,4,4,,,,,,,,,,,,,,,,,,,,,
1.60E+15,8114,7.933518,64,0,0,0,0,0,0,0,0,0,1,4,4,,,,,,,,,,,,,,,,,,,,,
1.60E+15,8112,7.8499503,64,0,0,0,0,0,0,0,0,0,1,4,4,,,,,,,,,,,,,,,,,,,,,
1.60E+15,8094,7.783198,64,0,0,0,0,0,0,0,0,0,1,4,4,,,,,,,,,,,,,,,,,,,,,
1.60E+15,8087,7.758099,64,0,0,0,0,0,0,0,0,0,1,4,4,,,,,,,,,,,,,,,,,,,,,
1.60E+15,8104,7.792659,64,0,0,0,0,0,0,0,0,0,1,4,4,,,,,,,,,,,,,,,,,,,,,
1.60E+15,8125,7.8839216,64,0,0,0,0,0,0,0,0,0,1,4,4,,,,,,,,,,,,,,,,,,,,,
1.60E+15,8118,8.005173,64,0,0,0,0,0,0,0,0,0,1,4,4,,,,,,,,,,,,,,,,,,,,,
1.60E+15,8098,8.120319,64,0,0,0,0,0,0,0,0,0,1,4,4,,,,,,,,,,,,,,,,,,,,,
1.60E+15,8092,8.201995,64,0,0,0,0,0,0,0,0,0,1,4,4,,,,,,,,,,,,,,,,,,,,,
1.60E+15,8114,8.23724,64,0,0,0,0,0,0,0,0,0,1,4,4,,,,,,,,,,,,,,,,,,,,,
1.60E+15,8127,8.221691,64,0,0,0,0,0,0,0,0,0,1,4,4,,,,,,,,,,,,,,,,,,,,,
1.60E+15,8121,8.156137,64,0,0,0,32780,16602,32676,32763,32765,32767,1,4,4,,,,,,,,,,,,,,,,,,,,,
1.60E+15,8101,8.050727,64,0,0,0,0,0,0,0,0,0,1,4,4,,,,,,,,,,,,,,,,,,,,,
1.60E+15,8102,7.926341,64,0,0,0,0,0,0,0,0,0,1,4,4,,,,,,,,,,,,,,,,,,,,,
1.60E+15,8118,7.8036175,64,0,0,0,0,0,0,0,0,0,1,4,4,,,,,,,,,,,,,,,,,,,,,
1.60E+15,8134,7.688591,64,0,0,0,0,0,0,0,0,0,1,4,4,,,,,,,,,,,,,,,,,,,,,
1.60E+15,8124,7.5722575,64,0,0,0,0,0,0,0,0,0,1,4,4,,,,,,,,,,,,,,,,,,,,,
1.60E+15,8108,7.445535,64,0,0,0,0,0,0,0,0,0,1,4,4,,,,,,,,,,,,,,,,,,,,,
1.60E+15,8107,7.3123918,64,0,0,0,0,0,0,0,0,0,1,4,4,,,,,,,,,,,,,,,,,,,,,
1.60E+15,8126,7.1871414,64,0,0,0,0,0,0,0,0,0,1,4,4,,,,,,,,,,,,,,,,,,,,,
1.60E+15,8139,7.081663,64,0,0,0,0,0,0,0,0,0,1,4,4,,,,,,,,,,,,,,,,,,,,,
1.60E+15,8129,6.999185,64,0,0,0,0,0,0,0,0,0,1,4,4,,,,,,,,,,,,,,,,,,,,,
1.60E+15,8108,6.939631,64,0,0,0,0,0,0,0,0,0,1,4,4,,,,,,,,,,,,,,,,,,,,,
1.60E+15,8105,6.9052916,64,0,0,0,32795,16406,32718,32764,32764,32765,1,4,4,,,,,,,,,,,,,,,,,,,,,
1.60E+15,8128,6.897145,64,0,0,0,0,0,0,0,0,0,1,4,4,,,,,,,,,,,,,,,,,,,,,
1.60E+15,8142,6.9070215,64,0,0,0,0,0,0,0,0,0,1,4,4,,,,,,,,,,,,,,,,,,,,,
1.60E+15,8136,6.9179306,64,0,0,0,0,0,0,0,0,0,1,4,4,,,,,,,,,,,,,,,,,,,,,
1.60E+15,8116,6.913965,64,0,0,0,0,0,0,0,0,0,1,4,4,,,,,,,,,,,,,,,,,,,,,
1.60E+15,8116,6.887329,64,0,0,0,0,0,0,0,0,0,1,4,4,,,,,,,,,,,,,,,,,,,,,
1.60E+15,8131,6.8338537,64,0,0,0,0,0,0,0,0,0,1,4,4,,,,,,,,,,,,,,,,,,,,,
1.60E+15,8149,6.7458925,64,0,0,0,0,0,0,0,0,0,1,4,4,,,,,,,,,,,,,,,,,,,,,
1.60E+15,8139,6.6162043,64,0,0,0,0,0,0,0,0,0,1,4,4,,,,,,,,,,,,,,,,,,,,,
1.60E+15,8119,6.4519,64,0,0,0,0,0,0,0,0,0,1,4,4,,,,,,,,,,,,,,,,,,,,,
1.60E+15,8119,6.281603,64,0,0,0,0,0,0,0,0,0,1,4,4,,,,,,,,,,,,,,,,,,,,,
1.60E+15,8140,6.1433845,64,0,0,0,0,0,0,0,0,0,1,4,4,,,,,,,,,,,,,,,,,,,,,
1.60E+15,8151,6.063901,64,0,0,0,32755,16311,32728,32766,32764,32765,1,4,4,,,,,,,,,,,,,,,,,,,,,
1.60E+15,8142,6.0481052,64,0,0,0,0,0,0,0,0,0,1,4,4,,,,,,,,,,,,,,,,,,,,,
1.60E+15,8120,6.0822725,64,0,0,0,0,0,0,0,0,0,1,4,4,,,,,,,,,,,,,,,,,,,,,
1.60E+15,8123,6.135471,64,0,0,0,0,0,0,0,0,0,1,4,4,,,,,,,,,,,,,,,,,,,,,
1.60E+15,8144,6.1504283,64,0,0,0,0,0,0,0,0,0,1,4,4,,,,,,,,,,,,,,,,,,,,,
1.60E+15,8157,6.0328574,64,0,0,0,0,0,0,0,0,0,1,4,4,,,,,,,,,,,,,,,,,,,,,
1.60E+15,8146,5.65371,64,0,0,0,0,0,0,0,0,0,1,4,4,,,,,,,,,,,,,,,,,,,,,
1.60E+15,8125,4.8635917,64,0,0,0,0,0,0,0,0,0,1,4,4,,,,,,,,,,,,,,,,,,,,,
1.60E+15,8127,3.5051541,64,0,0,0,0,0,0,0,0,0,1,4,4,,,,,,,,,,,,,,,,,,,,,
1.60E+15,8145,1.4177202,64,0,0,0,0,0,0,0,0,0,1,4,4,,,,,,,,,,,,,,,,,,,,,
1.60E+15,8156,-1.5513012,64,0,0,0,0,0,0,0,0,0,1,4,4,,,,,,,,,,,,,,,,,,,,,
1.60E+15,8149,-5.509533,64,0,0,0,0,0,0,0,0,0,1,4,4,,,,,,,,,,,,,,,,,,,,,
1.60E+15,8130,-10.45848,64,0,0,0,32780,16544,32658,32764,32764,32766,1,4,4,,,,,,,,,,,,,,,,,,,,,
1.60E+15,8134,-16.231964,64,0,0,0,0,0,0,0,0,0,1,4,4,,,,,,,,,,,,,,,,,,,,,
1.60E+15,8153,-22.460218,64,0,0,0,0,0,0,0,0,0,1,4,4,,,,,,,,,,,,,,,,,,,,,
1.60E+15,8165,-28.572569,64,0,0,0,0,0,0,0,0,0,1,4,4,,,,,,,,,,,,,,,,,,,,,
1.60E+15,8157,-33.847652,64,0,0,0,0,0,0,0,0,0,1,4,4,,,,,,,,,,,,,,,,,,,,,
1.60E+15,8139,-37.529434,64,0,0,0,0,0,0,0,0,0,1,4,4,,,,,,,,,,,,,,,,,,,,,
1.60E+15,8134,-39.01566,64,0,0,0,0,0,0,0,0,0,1,4,4,,,,,,,,,,,,,,,,,,,,,
1.60E+15,8152,-38.065495,64,0,0,0,0,0,0,0,0,0,1,4,4,,,,,,,,,,,,,,,,,,,,,
1.60E+15,8165,-34.90394,64,0,0,0,0,0,0,0,0,0,1,4,4,,,,,,,,,,,,,,,,,,,,,
1.60E+15,8151,-30.122478,64,0,0,0,0,0,0,0,0,0,1,4,4,,,,,,,,,,,,,,,,,,,,,
1.60E+15,8138,-24.46354,64,0,0,0,0,0,0,0,0,0,1,4,4,,,,,,,,,,,,,,,,,,,,,
1.60E+15,8141,-18.619303,64,0,0,0,0,0,0,0,0,0,1,4,4,,,,,,,,,,,,,,,,,,,,,
1.60E+15,8156,-13.118402,64,0,0,0,32801,16487,32700,32762,32765,32767,1,4,4,,,,,,,,,,,,,,,,,,,,,
1.60E+15,8167,-8.298985,64,0,0,0,0,0,0,0,0,0,1,4,4,,,,,,,,,,,,,,,,,,,,,
1.60E+15,8152,-4.327838,64,0,0,0,0,0,0,0,0,0,1,4,4,,,,,,,,,,,,,,,,,,,,,
1.60E+15,8140,-1.2337754,64,0,0,0,0,0,0,0,0,0,1,4,4,,,,,,,,,,,,,,,,,,,,,
1.60E+15,8141,1.052484,64,0,0,0,0,0,0,0,0,0,1,4,4,,,,,,,,,,,,,,,,,,,,,
1.60E+15,8164,2.6534173,64,0,0,0,0,0,0,0,0,0,1,4,4,,,,,,,,,,,,,,,,,,,,,
1.60E+15,8172,3.7065701,64,0,0,0,0,0,0,0,0,0,1,4,4,,,,,,,,,,,,,,,,,,,,,
1.60E+15,8160,4.3456545,64,0,0,0,0,0,0,0,0,0,1,4,4,,,,,,,,,,,,,,,,,,,,,
1.60E+15,8140,4.6978297,64,0,0,0,0,0,0,0,0,0,1,4,4,,,,,,,,,,,,,,,,,,,,,
1.60E+15,8146,4.8796887,64,0,0,0,0,0,0,0,0,0,1,4,4,,,,,,,,,,,,,,,,,,,,,
1.60E+15,8167,4.982691,64,0,0,0,0,0,0,0,0,0,1,4,4,,,,,,,,,,,,,,,,,,,,,
1.60E+15,8177,5.0591917,64,0,0,0,0,0,0,0,0,0,1,4,4,,,,,,,,,,,,,,,,,,,,,
1.60E+15,8163,5.12643,64,0,0,0,32769,16251,32758,32767,32764,32768,1,4,4,,,,,,,,,,,,,,,,,,,,,
1.60E+15,8145,5.186953,64,0,0,0,0,0,0,0,0,0,1,4,4,,,,,,,,,,,,,,,,,,,,,
1.60E+15,8153,5.2454123,64,0,0,0,0,0,0,0,0,0,1,4,4,,,,,,,,,,,,,,,,,,,,,
1.60E+15,8166,5.3079767,64,0,0,0,0,0,0,0,0,0,1,4,4,,,,,,,,,,,,,,,,,,,,,
1.60E+15,8177,5.372815,64,0,0,0,0,0,0,0,0,0,1,4,4,,,,,,,,,,,,,,,,,,,,,
1.60E+15,8163,5.4296317,64,0,0,0,0,0,0,0,0,0,1,4,4,,,,,,,,,,,,,,,,,,,,,
1.60E+15,8149,5.471143,64,0,0,0,0,0,0,0,0,0,1,4,4,,,,,,,,,,,,,,,,,,,,,
1.60E+15,8152,5.5019045,64,0,0,0,0,0,0,0,0,0,1,4,4,,,,,,,,,,,,,,,,,,,,,
1.60E+15,8174,5.5337677,64,0,0,0,0,0,0,0,0,0,1,4,4,,,,,,,,,,,,,,,,,,,,,
1.60E+15,8179,5.575808,64,0,0,0,0,0,0,0,0,0,1,4,4,,,,,,,,,,,,,,,,,,,,,
1.60E+15,8166,5.6321683,64,0,0,0,0,0,0,0,0,0,1,4,4,,,,,,,,,,,,,,,,,,,,,
1.60E+15,8152,5.707762,64,0,0,0,0,0,0,0,0,0,1,4,4,,,,,,,,,,,,,,,,,,,,,
1.60E+15,8157,5.8091226,64,0,0,0,32767,16461,32680,32765,32764,32767,1,4,4,,,,,,,,,,,,,,,,,,,,,
1.60E+15,8177,5.9350567,64,0,0,0,0,0,0,0,0,0,1,4,4,,,,,,,,,,,,,,,,,,,,,
1.60E+15,8184,6.0701632,64,0,0,0,0,0,0,0,0,0,1,4,4,,,,,,,,,,,,,,,,,,,,,
1.60E+15,8168,6.1941366,64,0,0,0,0,0,0,0,0,0,1,4,4,,,,,,,,,,,,,,,,,,,,,
1.60E+15,8157,6.298985,64,0,0,0,0,0,0,0,0,0,1,4,4,,,,,,,,,,,,,,,,,,,,,
1.60E+15,8161,6.3945203,64,0,0,0,0,0,0,0,0,0,1,4,4,,,,,,,,,,,,,,,,,,,,,
1.60E+15,8179,6.4954686,64,0,0,0,0,0,0,0,0,0,1,4,4,,,,,,,,,,,,,,,,,,,,,
1.60E+15,8189,6.6064315,64,0,0,0,0,0,0,0,0,0,1,4,4,,,,,,,,,,,,,,,,,,,,,
1.60E+15,8169,6.721178,64,0,0,0,0,0,0,0,0,0,1,4,4,,,,,,,,,,,,,,,,,,,,,
1.60E+15,8154,6.831217,64,0,0,0,0,0,0,0,0,0,1,4,4,,,,,,,,,,,,,,,,,,,,,
1.60E+15,8160,6.926827,64,0,0,0,0,0,0,0,0,0,1,4,4,,,,,,,,,,,,,,,,,,,,,
1.60E+15,8180,6.9880486,64,0,0,0,0,0,0,0,0,0,1,4,4,,,,,,,,,,,,,,,,,,,,,
1.60E+15,8184,6.981351,64,0,0,0,32821,16587,32673,32759,32766,32765,1,4,4,,,,,,,,,,,,,,,,,,,,,
1.60E+15,8172,6.873539,64,0,0,0,0,0,0,0,0,0,1,4,4,,,,,,,,,,,,,,,,,,,,,
1.60E+15,8159,6.6519322,64,0,0,0,0,0,0,0,0,0,1,4,4,,,,,,,,,,,,,,,,,,,,,
1.60E+15,8167,6.329879,64,0,0,0,0,0,0,0,0,0,1,4,4,,,,,,,,,,,,,,,,,,,,,
1.60E+15,8181,5.9337554,64,0,0,0,0,0,0,0,0,0,1,4,4,,,,,,,,,,,,,,,,,,,,,
1.60E+15,8187,5.488852,64,0,0,0,0,0,0,0,0,0,1,4,4,,,,,,,,,,,,,,,,,,,,,
1.60E+15,8172,5.018104,64,0,0,0,0,0,0,0,0,0,1,4,4,,,,,,,,,,,,,,,,,,,,,
1.60E+15,8162,4.546972,64,0,0,0,0,0,0,0,0,0,1,4,4,,,,,,,,,,,,,,,,,,,,,
1.60E+15,8173,4.099502,64,0,0,0,0,0,0,0,0,0,1,4,4,,,,,,,,,,,,,,,,,,,,,
1.60E+15,8190,3.6852393,64,0,0,0,0,0,0,0,0,0,1,4,4,,,,,,,,,,,,,,,,,,,,,
1.60E+15,8194,3.2937179,64,0,0,0,0,0,0,0,0,0,1,4,4,,,,,,,,,,,,,,,,,,,,,
1.60E+15,8175,2.9065893,64,0,0,0,0,0,0,0,0,0,1,4,4,,,,,,,,,,,,,,,,,,,,,
1.60E+15,8164,2.5154479,64,0,0,0,32755,16365,32772,32766,32765,32767,1,4,4,,,,,,,,,,,,,,,,,,,,,
1.60E+15,8173,2.127051,64,0,0,0,0,0,0,0,0,0,1,4,4,,,,,,,,,,,,,,,,,,,,,
1.60E+15,8192,1.7544128,64,0,0,0,0,0,0,0,0,0,1,4,4,,,,,,,,,,,,,,,,,,,,,
1.60E+15,8197,1.4092668,64,0,0,0,0,0,0,0,0,0,1,4,4,,,,,,,,,,,,,,,,,,,,,
1.60E+15,8178,1.1066107,64,0,0,0,0,0,0,0,0,0,1,4,4,,,,,,,,,,,,,,,,,,,,,
1.60E+15,8168,0.87164235,64,0,0,0,0,0,0,0,0,0,1,4,4,,,,,,,,,,,,,,,,,,,,,
1.60E+15,8174,0.73395103,64,0,0,0,0,0,0,0,0,0,1,4,4,,,,,,,,,,,,,,,,,,,,,
1.60E+15,8193,0.71003747,64,0,0,0,0,0,0,0,0,0,1,4,4,,,,,,,,,,,,,,,,,,,,,
1.60E+15,8195,0.7920937,64,0,0,0,0,0,0,0,0,0,1,4,4,,,,,,,,,,,,,,,,,,,,,
1.60E+15,8181,0.95463043,64,0,0,0,0,0,0,0,0,0,1,4,4,,,,,,,,,,,,,,,,,,,,,
1.60E+15,8170,1.1693643,64,0,0,0,0,0,0,0,0,0,1,4,4,,,,,,,,,,,,,,,,,,,,,
1.60E+15,8182,1.4104259,64,0,0,0,0,0,0,0,0,0,1,4,4,,,,,,,,,,,,,,,,,,,,,
1.60E+15,8202,1.6475163,64,0,0,0,32790,16339,32727,32767,32764,32767,1,4,4,,,,,,,,,,,,,,,,,,,,,
1.60E+15,8199,1.8432149,64,0,0,0,0,0,0,0,0,0,1,4,4,,,,,,,,,,,,,,,,,,,,,
1.60E+15,8180,1.9652239,64,0,0,0,0,0,0,0,0,0,1,4,4,,,,,,,,,,,,,,,,,,,,,
1.60E+15,8169,2.002269,64,0,0,0,0,0,0,0,0,0,1,4,4,,,,,,,,,,,,,,,,,,,,,
1.60E+15,8180,1.9657944,64,0,0,0,0,0,0,0,0,0,1,4,4,,,,,,,,,,,,,,,,,,,,,
1.60E+15,8199,1.877332,64,0,0,0,0,0,0,0,0,0,1,4,4,,,,,,,,,,,,,,,,,,,,,
1.60E+15,8201,1.758676,64,0,0,0,0,0,0,0,0,0,1,4,4,,,,,,,,,,,,,,,,,,,,,
1.60E+15,8180,1.6349846,64,0,0,0,0,0,0,0,0,0,1,4,4,,,,,,,,,,,,,,,,,,,,,
1.60E+15,8170,1.5397587,64,0,0,0,0,0,0,0,0,0,1,4,4,,,,,,,,,,,,,,,,,,,,,
1.60E+15,8183,1.5070404,64,0,0,0,0,0,0,0,0,0,1,4,4,,,,,,,,,,,,,,,,,,,,,
1.60E+15,8200,1.5541859,64,0,0,0,0,0,0,0,0,0,1,4,4,,,,,,,,,,,,,,,,,,,,,
1.60E+15,8202,1.6741399,64,0,0,0,0,0,0,0,0,0,1,4,4,,,,,,,,,,,,,,,,,,,,,
1.60E+15,8184,1.845713,64,0,0,0,32788,16581,32626,32762,32766,32766,1,4,4,,,,,,,,,,,,,,,,,,,,,
1.60E+15,8174,2.048733,64,0,0,0,0,0,0,0,0,0,1,4,4,,,,,,,,,,,,,,,,,,,,,
1.60E+15,8182,2.267523,64,0,0,0,0,0,0,0,0,0,1,4,4,,,,,,,,,,,,,,,,,,,,,
1.60E+15,8199,2.4843335,64,0,0,0,0,0,0,0,0,0,1,4,4,,,,,,,,,,,,,,,,,,,,,
1.60E+15,8200,2.6784573,64,0,0,0,0,0,0,0,0,0,1,4,4,,,,,,,,,,,,,,,,,,,,,
1.60E+15,8183,2.8362405,64,0,0,0,0,0,0,0,0,0,1,4,4,,,,,,,,,,,,,,,,,,,,,
1.60E+15,8172,2.9586198,64,0,0,0,0,0,0,0,0,0,1,4,4,,,,,,,,,,,,,,,,,,,,,
1.60E+15,8188,3.0535793,64,0,0,0,0,0,0,0,0,0,1,4,4,,,,,,,,,,,,,,,,,,,,,
1.60E+15,8205,3.1207306,64,0,0,0,0,0,0,0,0,0,1,4,4,,,,,,,,,,,,,,,,,,,,,
1.60E+15,8197,3.1470802,64,0,0,0,0,0,0,0,0,0,1,4,4,,,,,,,,,,,,,,,,,,,,,
1.60E+15,8183,3.1195652,64,0,0,0,0,0,0,0,0,0,1,4,4,,,,,,,,,,,,,,,,,,,,,
1.60E+15,8175,3.039232,64,0,0,0,0,0,0,0,0,0,1,4,4,,,,,,,,,,,,,,,,,,,,,
1.60E+15,8188,2.9197166,64,0,0,0,32786,16433,32705,32762,32764,32767,1,4,4,,,,,,,,,,,,,,,,,,,,,
1.60E+15,8204,2.7729275,64,0,0,0,0,0,0,0,0,0,1,4,4,,,,,,,,,,,,,,,,,,,,,
1.60E+15,8207,2.6002567,64,0,0,0,0,0,0,0,0,0,1,4,4,,,,,,,,,,,,,,,,,,,,,
1.60E+15,8187,2.3988335,64,0,0,0,0,0,0,0,0,0,1,4,4,,,,,,,,,,,,,,,,,,,,,
1.60E+15,8181,2.1717052,64,0,0,0,0,0,0,0,0,0,1,4,4,,,,,,,,,,,,,,,,,,,,,
1.60E+15,8197,1.9281946,64,0,0,0,0,0,0,0,0,0,1,4,4,,,,,,,,,,,,,,,,,,,,,
1.60E+15,8210,1.6765118,64,0,0,0,0,0,0,0,0,0,1,4,4,,,,,,,,,,,,,,,,,,,,,
1.60E+15,8205,1.4215925,64,0,0,0,0,0,0,0,0,0,1,4,4,,,,,,,,,,,,,,,,,,,,,
1.60E+15,8183,1.1721982,64,0,0,0,0,0,0,0,0,0,1,4,4,,,,,,,,,,,,,,,,,,,,,
1.60E+15,8178,0.9455119,64,0,0,0,0,0,0,0,0,0,1,4,4,,,,,,,,,,,,,,,,,,,,,
1.60E+15,8195,0.759585,64,0,0,0,0,0,0,0,0,0,1,4,4,,,,,,,,,,,,,,,,,,,,,
1.60E+15,8212,0.6200392,64,0,0,0,0,0,0,0,0,0,1,4,4,,,,,,,,,,,,,,,,,,,,,
1.60E+15,8207,0.51729095,64,0,0,0,32762,16270,32773,32770,32764,32766,1,4,4,,,,,,,,,,,,,,,,,,,,,
1.60E+15,8190,0.43891472,64,0,0,0,0,0,0,0,0,0,1,4,4,,,,,,,,,,,,,,,,,,,,,
1.60E+15,8185,0.3823998,64,0,0,0,0,0,0,0,0,0,1,4,4,,,,,,,,,,,,,,,,,,,,,
1.60E+15,8195,0.35304013,64,0,0,0,0,0,0,0,0,0,1,4,4,,,,,,,,,,,,,,,,,,,,,
1.60E+15,8211,0.35186455,64,0,0,0,0,0,0,0,0,0,1,4,4,,,,,,,,,,,,,,,,,,,,,
1.60E+15,8209,0.37076506,64,0,0,0,0,0,0,0,0,0,1,4,4,,,,,,,,,,,,,,,,,,,,,
1.60E+15,8190,0.4001627,64,0,0,0,0,0,0,0,0,0,1,4,4,,,,,,,,,,,,,,,,,,,,,
1.60E+15,8180,0.43596995,64,0,0,0,0,0,0,0,0,0,1,4,4,,,,,,,,,,,,,,,,,,,,,
1.60E+15,8195,0.47471318,64,0,0,0,0,0,0,0,0,0,1,4,4,,,,,,,,,,,,,,,,,,,,,
1.60E+15,8212,0.5034553,64,0,0,0,0,0,0,0,0,0,1,4,4,,,,,,,,,,,,,,,,,,,,,
1.60E+15,8208,0.4998381,64,0,0,0,0,0,0,0,0,0,1,4,4,,,,,,,,,,,,,,,,,,,,,
1.60E+15,8192,0.44428286,64,0,0,0,0,0,0,0,0,0,1,4,4,,,,,,,,,,,,,,,,,,,,,
1.60E+15,8185,0.3307893,64,0,0,0,32802,16282,32750,32764,32764,32767,1,4,4,,,,,,,,,,,,,,,,,,,,,
1.60E+15,8203,0.16544741,64,0,0,0,0,0,0,0,0,0,1,4,4,,,,,,,,,,,,,,,,,,,,,
1.60E+15,8214,-0.040714435,64,0,0,0,0,0,0,0,0,0,1,4,4,,,,,,,,,,,,,,,,,,,,,
1.60E+15,8206,-0.27150398,64,0,0,0,0,0,0,0,0,0,1,4,4,,,,,,,,,,,,,,,,,,,,,
1.60E+15,8190,-0.4983173,64,0,0,0,0,0,0,0,0,0,1,4,4,,,,,,,,,,,,,,,,,,,,,
1.60E+15,8188,-0.6806074,64,0,0,0,0,0,0,0,0,0,1,4,4,,,,,,,,,,,,,,,,,,,,,
1.60E+15,8203,-0.7823023,64,0,0,0,0,0,0,0,0,0,1,4,4,,,,,,,,,,,,,,,,,,,,,
1.60E+15,8214,-0.79179895,64,0,0,0,0,0,0,0,0,0,1,4,4,,,,,,,,,,,,,,,,,,,,,
1.60E+15,8211,-0.7256346,64,0,0,0,0,0,0,0,0,0,1,4,4,,,,,,,,,,,,,,,,,,,,,
1.60E+15,8191,-0.61316323,64,0,0,0,0,0,0,0,0,0,1,4,4,,,,,,,,,,,,,,,,,,,,,
1.60E+15,8187,-0.4801387,64,0,0,0,0,0,0,0,0,0,1,4,4,,,,,,,,,,,,,,,,,,,,,
1.60E+15,8203,-0.3462133,64,0,0,0,0,0,0,0,0,0,1,4,4,,,,,,,,,,,,,,,,,,,,,
1.60E+15,8219,-0.2314505,64,0,0,0,32773,16413,32682,32767,32764,32767,1,4,4,,,,,,,,,,,,,,,,,,,,,
1.60E+15,8216,-0.1563547,64,0,0,0,0,0,0,0,0,0,1,4,4,,,,,,,,,,,,,,,,,,,,,
1.60E+15,8195,-0.13222407,64,0,0,0,0,0,0,0,0,0,1,4,4,,,,,,,,,,,,,,,,,,,,,
1.60E+15,8190,-0.15454674,64,0,0,0,0,0,0,0,0,0,1,4,4,,,,,,,,,,,,,,,,,,,,,
1.60E+15,8208,-0.20999865,64,0,0,0,0,0,0,0,0,0,1,4,4,,,,,,,,,,,,,,,,,,,,,
1.60E+15,8217,-0.2888716,64,0,0,0,0,0,0,0,0,0,1,4,4,,,,,,,,,,,,,,,,,,,,,
1.60E+15,8217,-0.38724735,64,0,0,0,0,0,0,0,0,0,1,4,4,,,,,,,,,,,,,,,,,,,,,
1.60E+15,8194,-0.4981275,64,0,0,0,0,0,0,0,0,0,1,4,4,,,,,,,,,,,,,,,,,,,,,
1.60E+15,8200,-0.6064644,64,0,0,0,0,0,0,0,0,0,1,4,4,,,,,,,,,,,,,,,,,,,,,
1.60E+15,8210,-0.6968977,64,0,0,0,0,0,0,0,0,0,1,4,4,,,,,,,,,,,,,,,,,,,,,
1.60E+15,8217,-0.7640238,64,0,0,0,0,0,0,0,0,0,1,4,4,,,,,,,,,,,,,,,,,,,,,
1.60E+15,8214,-0.8093145,64,0,0,0,0,0,0,0,0,0,1,4,4,,,,,,,,,,,,,,,,,,,,,
1.60E+15,8193,-0.8266095,64,0,0,0,32830,16567,32669,32759,32765,32766,1,4,4,,,,,,,,,,,,,,,,,,,,,
1.60E+15,8191,-0.79459995,64,0,0,0,0,0,0,0,0,0,1,4,4,,,,,,,,,,,,,,,,,,,,,
1.60E+15,8207,-0.6875766,64,0,0,0,0,0,0,0,0,0,1,4,4,,,,,,,,,,,,,,,,,,,,,
1.60E+15,8216,-0.4940277,64,0,0,0,0,0,0,0,0,0,1,4,4,,,,,,,,,,,,,,,,,,,,,
1.60E+15,8209,-0.22457877,64,0,0,0,0,0,0,0,0,0,1,4,4,,,,,,,,,,,,,,,,,,,,,
1.60E+15,8191,0.093932666,64,0,0,0,0,0,0,0,0,0,1,4,4,,,,,,,,,,,,,,,,,,,,,
1.60E+15,8195,0.42561927,64,0,0,0,0,0,0,0,0,0,1,4,4,,,,,,,,,,,,,,,,,,,,,
1.60E+15,8212,0.72523373,64,0,0,0,0,0,0,0,0,0,1,4,4,,,,,,,,,,,,,,,,,,,,,
1.60E+15,8222,0.9379074,64,0,0,0,0,0,0,0,0,0,1,4,4,,,,,,,,,,,,,,,,,,,,,
1.60E+15,8215,1.0114572,64,0,0,0,0,0,0,0,0,0,1,4,4,,,,,,,,,,,,,,,,,,,,,
1.60E+15,8198,0.9178947,64,0,0,0,0,0,0,0,0,0,1,4,4,,,,,,,,,,,,,,,,,,,,,
1.60E+15,8196,0.6662039,64,0,0,0,0,0,0,0,0,0,1,4,4,,,,,,,,,,,,,,,,,,,,,
1.60E+15,8211,0.29488897,32,0,0,0,32758,16383,32707,32765,32765,32766,1,4,4,,,,,,,,,,,,,,,,,,,,,
1.60E+15,8208,-0.14714962,32,0,0,0,0,0,0,0,0,0,1,4,4,,,,,,,,,,,,,,,,,,,,,
1.60E+15,8206,-0.61343366,32,0,0,0,0,0,0,0,0,0,1,4,4,,,,,,,,,,,,,,,,,,,,,
1.60E+15,8199,-1.0605807,32,0,0,0,0,0,0,0,0,0,1,4,4,,,,,,,,,,,,,,,,,,,,,
1.60E+15,8196,-1.4476658,32,0,0,0,0,0,0,0,0,0,1,4,4,,,,,,,,,,,,,,,,,,,,,
1.60E+15,8205,-1.7429101,32,0,0,0,0,0,0,0,0,0,1,4,4,,,,,,,,,,,,,,,,,,,,,
1.60E+15,8208,-1.9308486,32,0,0,0,0,0,0,0,0,0,1,4,4,,,,,,,,,,,,,,,,,,,,,
1.60E+15,8204,-2.0099373,32,0,0,0,0,0,0,0,0,0,1,4,4,,,,,,,,,,,,,,,,,,,,,
1.60E+15,8194,-1.9832168,32,0,0,0,0,0,0,0,0,0,1,4,4,,,,,,,,,,,,,,,,,,,,,
1.60E+15,8196,-1.8546137,32,0,0,0,0,0,0,0,0,0,1,4,4,,,,,,,,,,,,,,,,,,,,,
1.60E+15,8202,-1.63593,32,0,0,0,0,0,0,0,0,0,1,4,4,,,,,,,,,,,,,,,,,,,,,
1.60E+15,8209,-1.3532015,32,0,0,0,0,0,0,0,0,0,1,4,4,,,,,,,,,,,,,,,,,,,,,
1.60E+15,8207,-1.04045,32,0,0,0,32786,16322,32729,32767,32765,32768,1,4,4,,,,,,,,,,,,,,,,,,,,,
1.60E+15,8197,-0.7249887,32,0,0,0,0,0,0,0,0,0,1,4,4,,,,,,,,,,,,,,,,,,,,,
1.60E+15,8198,-0.42113587,32,0,0,0,0,0,0,0,0,0,1,4,4,,,,,,,,,,,,,,,,,,,,,
1.60E+15,8202,-0.1388273,32,0,0,0,0,0,0,0,0,0,1,4,4,,,,,,,,,,,,,,,,,,,,,
1.60E+15,8207,0.10590158,32,0,0,0,0,0,0,0,0,0,1,4,4,,,,,,,,,,,,,,,,,,,,,
1.60E+15,8204,0.2944591,32,0,0,0,0,0,0,0,0,0,1,4,4,,,,,,,,,,,,,,,,,,,,,
1.60E+15,8198,0.42007035,32,0,0,0,0,0,0,0,0,0,1,4,4,,,,,,,,,,,,,,,,,,,,,
1.60E+15,8196,0.49525627,32,0,0,0,0,0,0,0,0,0,1,4,4,,,,,,,,,,,,,,,,,,,,,
1.60E+15,8205,0.5436419,32,0,0,0,0,0,0,0,0,0,1,4,4,,,,,,,,,,,,,,,,,,,,,
1.60E+15,8211,0.5870054,32,0,0,0,0,0,0,0,0,0,1,4,4,,,,,,,,,,,,,,,,,,,,,
1.60E+15,8208,0.64212483,32,0,0,0,0,0,0,0,0,0,1,4,4,,,,,,,,,,,,,,,,,,,,,
1.60E+15,8196,0.7260149,32,0,0,0,0,0,0,0,0,0,1,4,4,,,,,,,,,,,,,,,,,,,,,
1.60E+15,8199,0.8570052,32,0,0,0,32823,16562,32649,32762,32766,32766,1,4,4,,,,,,,,,,,,,,,,,,,,,
1.60E+15,8206,1.0458696,32,0,0,0,0,0,0,0,0,0,1,4,4,,,,,,,,,,,,,,,,,,,,,
1.60E+15,8212,1.2873926,32,0,0,0,0,0,0,0,0,0,1,4,4,,,,,,,,,,,,,,,,,,,,,
1.60E+15,8207,1.5640813,32,0,0,0,0,0,0,0,0,0,1,4,4,,,,,,,,,,,,,,,,,,,,,
1.60E+15,8195,1.8580471,32,0,0,0,0,0,0,0,0,0,1,4,4,,,,,,,,,,,,,,,,,,,,,
1.60E+15,8200,2.155789,32,0,0,0,0,0,0,0,0,0,1,4,4,,,,,,,,,,,,,,,,,,,,,
1.60E+15,8206,2.4410107,32,0,0,0,0,0,0,0,0,0,1,4,4,,,,,,,,,,,,,,,,,,,,,
1.60E+15,8211,2.6873841,32,0,0,0,0,0,0,0,0,0,1,4,4,,,,,,,,,,,,,,,,,,,,,
1.60E+15,8206,2.863722,32,0,0,0,0,0,0,0,0,0,1,4,4,,,,,,,,,,,,,,,,,,,,,
1.60E+15,8198,2.9475605,32,0,0,0,0,0,0,0,0,0,1,4,4,,,,,,,,,,,,,,,,,,,,,
1.60E+15,8201,2.9320555,32,0,0,0,0,0,0,0,0,0,1,4,4,,,,,,,,,,,,,,,,,,,,,
1.60E+15,8208,2.820966,32,0,0,0,0,0,0,0,0,0,1,4,4,,,,,,,,,,,,,,,,,,,,,
1.60E+15,8212,2.622967,32,0,0,0,32761,16463,32649,32762,32766,32767,1,4,4,,,,,,,,,,,,,,,,,,,,,
1.60E+15,8205,2.3558407,32,0,0,0,0,0,0,0,0,0,1,4,4,,,,,,,,,,,,,,,,,,,,,
1.60E+15,8196,2.0551963,32,0,0,0,0,0,0,0,0,0,1,4,4,,,,,,,,,,,,,,,,,,,,,
1.60E+15,8199,1.7723815,32,0,0,0,0,0,0,0,0,0,1,4,4,,,,,,,,,,,,,,,,,,,,,
1.60E+15,8205,1.5574781,32,0,0,0,0,0,0,0,0,0,1,4,4,,,,,,,,,,,,,,,,,,,,,
1.60E+15,8210,1.4427696,32,0,0,0,0,0,0,0,0,0,1,4,4,,,,,,,,,,,,,,,,,,,,,
1.60E+15,8204,1.4416558,32,0,0,0,0,0,0,0,0,0,1,4,4,,,,,,,,,,,,,,,,,,,,,
1.60E+15,8194,1.559241,32,0,0,0,0,0,0,0,0,0,1,4,4,,,,,,,,,,,,,,,,,,,,,
1.60E+15,8199,1.798669,32,0,0,0,0,0,0,0,0,0,1,4,4,,,,,,,,,,,,,,,,,,,,,
1.60E+15,8210,2.156694,32,0,0,0,0,0,0,0,0,0,1,4,4,,,,,,,,,,,,,,,,,,,,,
1.60E+15,8211,2.6176054,32,0,0,0,0,0,0,0,0,0,1,4,4,,,,,,,,,,,,,,,,,,,,,
1.60E+15,8205,3.1557016,32,0,0,0,0,0,0,0,0,0,1,4,4,,,,,,,,,,,,,,,,,,,,,
1.60E+15,8199,3.7430305,32,0,0,0,32804,16260,32739,32764,32764,32766,1,4,4,,,,,,,,,,,,,,,,,,,,,
1.60E+15,8201,4.352032,32,0,0,0,0,0,0,0,0,0,1,4,4,,,,,,,,,,,,,,,,,,,,,
1.60E+15,8207,4.951553,32,0,0,0,0,0,0,0,0,0,1,4,4,,,,,,,,,,,,,,,,,,,,,
1.60E+15,8210,5.507036,32,0,0,0,0,0,0,0,0,0,1,4,4,,,,,,,,,,,,,,,,,,,,,
1.60E+15,8203,5.9914055,32,0,0,0,0,0,0,0,0,0,1,4,4,,,,,,,,,,,,,,,,,,,,,
1.60E+15,8197,6.3971343,32,0,0,0,0,0,0,0,0,0,1,4,4,,,,,,,,,,,,,,,,,,,,,
1.60E+15,8202,6.7351675,32,0,0,0,0,0,0,0,0,0,1,4,4,,,,,,,,,,,,,,,,,,,,,
1.60E+15,8210,7.020843,32,0,0,0,0,0,0,0,0,0,1,4,4,,,,,,,,,,,,,,,,,,,,,
1.60E+15,8212,7.263052,32,0,0,0,0,0,0,0,0,0,1,4,4,,,,,,,,,,,,,,,,,,,,,
1.60E+15,8203,7.4679418,32,0,0,0,0,0,0,0,0,0,1,4,4,,,,,,,,,,,,,,,,,,,,,
1.60E+15,8197,7.6492014,32,0,0,0,0,0,0,0,0,0,1,4,4,,,,,,,,,,,,,,,,,,,,,
1.60E+15,8201,7.8282986,32,0,0,0,0,0,0,0,0,0,1,4,4,,,,,,,,,,,,,,,,,,,,,
1.60E+15,8211,8.021282,32,0,0,0,32759,16462,32744,32768,32765,32766,1,4,4,,,,,,,,,,,,,,,,,,,,,
1.60E+15,8211,8.226462,32,0,0,0,0,0,0,0,0,0,1,4,4,,,,,,,,,,,,,,,,,,,,,
1.60E+15,8205,8.425258,32,0,0,0,0,0,0,0,0,0,1,4,4,,,,,,,,,,,,,,,,,,,,,
1.60E+15,8198,8.592234,32,0,0,0,0,0,0,0,0,0,1,4,4,,,,,,,,,,,,,,,,,,,,,
1.60E+15,8204,8.701466,32,0,0,0,0,0,0,0,0,0,1,4,4,,,,,,,,,,,,,,,,,,,,,
1.60E+15,8211,8.72664,32,0,0,0,0,0,0,0,0,0,1,4,4,,,,,,,,,,,,,,,,,,,,,
1.60E+15,8211,8.644646,32,0,0,0,0,0,0,0,0,0,1,4,4,,,,,,,,,,,,,,,,,,,,,
1.60E+15,8205,8.447797,32,0,0,0,0,0,0,0,0,0,1,4,4,,,,,,,,,,,,,,,,,,,,,
1.60E+15,8201,8.153647,32,0,0,0,0,0,0,0,0,0,1,4,4,,,,,,,,,,,,,,,,,,,,,
1.60E+15,8203,7.7983904,32,0,0,0,0,0,0,0,0,0,1,4,4,,,,,,,,,,,,,,,,,,,,,
1.60E+15,8209,7.417386,32,0,0,0,0,0,0,0,0,0,1,4,4,,,,,,,,,,,,,,,,,,,,,
1.60E+15,8212,7.0312266,32,0,0,0,0,0,0,0,0,0,1,4,4,,,,,,,,,,,,,,,,,,,,,
1.60E+15,8203,6.648287,32,0,0,0,32813,16591,32688,32761,32765,32765,1,4,4,,,,,,,,,,,,,,,,,,,,,
1.60E+15,8197,6.2745705,32,0,0,0,0,0,0,0,0,0,1,4,4,,,,,,,,,,,,,,,,,,,,,
1.60E+15,8203,5.9148483,32,0,0,0,0,0,0,0,0,0,1,4,4,,,,,,,,,,,,,,,,,,,,,
1.60E+15,8210,5.564262,32,0,0,0,0,0,0,0,0,0,1,4,4,,,,,,,,,,,,,,,,,,,,,
1.60E+15,8209,5.205586,32,0,0,0,0,0,0,0,0,0,1,4,4,,,,,,,,,,,,,,,,,,,,,
1.60E+15,8205,4.820908,32,0,0,0,0,0,0,0,0,0,1,4,4,,,,,,,,,,,,,,,,,,,,,
1.60E+15,8201,4.407199,32,0,0,0,0,0,0,0,0,0,1,4,4,,,,,,,,,,,,,,,,,,,,,
1.60E+15,8204,3.9794629,32,0,0,0,0,0,0,0,0,0,1,4,4,,,,,,,,,,,,,,,,,,,,,
1.60E+15,8210,3.559794,32,0,0,0,0,0,0,0,0,0,1,4,4,,,,,,,,,,,,,,,,,,,,,
1.60E+15,8211,3.1667113,32,0,0,0,0,0,0,0,0,0,1,4,4,,,,,,,,,,,,,,,,,,,,,
1.60E+15,8206,2.8155754,32,0,0,0,0,0,0,0,0,0,1,4,4,,,,,,,,,,,,,,,,,,,,,
1.60E+15,8201,2.5245047,32,0,0,0,0,0,0,0,0,0,1,4,4,,,,,,,,,,,,,,,,,,,,,
1.60E+15,8203,2.3134747,32,0,0,0,32759,16338,32762,32765,32765,32767,1,4,4,,,,,,,,,,,,,,,,,,,,,
1.60E+15,8210,2.196082,32,0,0,0,0,0,0,0,0,0,1,4,4,,,,,,,,,,,,,,,,,,,,,
1.60E+15,8211,2.1758366,32,0,0,0,0,0,0,0,0,0,1,4,4,,,,,,,,,,,,,,,,,,,,,
1.60E+15,8207,2.2525337,32,0,0,0,0,0,0,0,0,0,1,4,4,,,,,,,,,,,,,,,,,,,,,
1.60E+15,8204,2.427759,32,0,0,0,0,0,0,0,0,0,1,4,4,,,,,,,,,,,,,,,,,,,,,
1.60E+15,8206,2.6979983,32,0,0,0,0,0,0,0,0,0,1,4,4,,,,,,,,,,,,,,,,,,,,,
1.60E+15,8209,3.041059,32,0,0,0,0,0,0,0,0,0,1,4,4,,,,,,,,,,,,,,,,,,,,,
1.60E+15,8211,3.412054,32,0,0,0,0,0,0,0,0,0,1,4,4,,,,,,,,,,,,,,,,,,,,,
1.60E+15,8206,3.7562888,32,0,0,0,0,0,0,0,0,0,1,4,4,,,,,,,,,,,,,,,,,,,,,
1.60E+15,8202,4.0281353,32,0,0,0,0,0,0,0,0,0,1,4,4,,,,,,,,,,,,,,,,,,,,,
1.60E+15,8206,4.200401,32,0,0,0,0,0,0,0,0,0,1,4,4,,,,,,,,,,,,,,,,,,,,,
1.60E+15,8210,4.262385,32,0,0,0,0,0,0,0,0,0,1,4,4,,,,,,,,,,,,,,,,,,,,,
1.60E+15,8208,4.2181377,32,0,0,0,32764,16512,32755,32766,32764,32767,1,4,4,,,,,,,,,,,,,,,,,,,,,
1.60E+15,8205,4.0893555,32,0,0,0,0,0,0,0,0,0,1,4,4,,,,,,,,,,,,,,,,,,,,,
1.60E+15,8202,3.9128995,32,0,0,0,0,0,0,0,0,0,1,4,4,,,,,,,,,,,,,,,,,,,,,
1.60E+15,8207,3.7248666,32,0,0,0,0,0,0,0,0,0,1,4,4,,,,,,,,,,,,,,,,,,,,,
1.60E+15,8213,3.540496,32,0,0,0,0,0,0,0,0,0,1,4,4,,,,,,,,,,,,,,,,,,,,,
1.60E+15,8210,3.3488877,32,0,0,0,0,0,0,0,0,0,1,4,4,,,,,,,,,,,,,,,,,,,,,
1.60E+15,8204,3.1274908,32,0,0,0,0,0,0,0,0,0,1,4,4,,,,,,,,,,,,,,,,,,,,,
1.60E+15,8202,2.860846,32,0,0,0,0,0,0,0,0,0,1,4,4,,,,,,,,,,,,,,,,,,,,,
1.60E+15,8205,2.546673,32,0,0,0,0,0,0,0,0,0,1,4,4,,,,,,,,,,,,,,,,,,,,,
1.60E+15,8211,2.1902928,32,0,0,0,0,0,0,0,0,0,1,4,4,,,,,,,,,,,,,,,,,,,,,
1.60E+15,8212,1.801068,32,0,0,0,0,0,0,0,0,0,1,4,4,,,,,,,,,,,,,,,,,,,,,
1.60E+15,8203,1.397001,32,0,0,0,0,0,0,0,0,0,1,4,4,,,,,,,,,,,,,,,,,,,,,
1.60E+15,8201,1.0082875,32,0,0,0,32756,16528,32624,32762,32765,32765,1,4,4,,,,,,,,,,,,,,,,,,,,,
1.60E+15,8207,0.6684163,32,0,0,0,0,0,0,0,0,0,1,4,4,,,,,,,,,,,,,,,,,,,,,
1.60E+15,8213,0.3970058,32,0,0,0,0,0,0,0,0,0,1,4,4,,,,,,,,,,,,,,,,,,,,,
1.60E+15,8209,0.1912095,32,0,0,0,0,0,0,0,0,0,1,4,4,,,,,,,,,,,,,,,,,,,,,
1.60E+15,8205,0.033886462,32,0,0,0,0,0,0,0,0,0,1,4,4,,,,,,,,,,,,,,,,,,,,,
1.60E+15,8202,-0.09238761,32,0,0,0,0,0,0,0,0,0,1,4,4,,,,,,,,,,,,,,,,,,,,,
1.60E+15,8209,-0.19999631,32,0,0,0,0,0,0,0,0,0,1,4,4,,,,,,,,,,,,,,,,,,,,,
1.60E+15,8218,-0.2991853,32,0,0,0,0,0,0,0,0,0,1,4,4,,,,,,,,,,,,,,,,,,,,,
1.60E+15,8213,-0.3976981,32,0,0,0,0,0,0,0,0,0,1,4,4,,,,,,,,,,,,,,,,,,,,,
1.60E+15,8203,-0.49342433,32,0,0,0,0,0,0,0,0,0,1,4,4,,,,,,,,,,,,,,,,,,,,,
1.60E+15,8198,-0.5706716,32,0,0,0,0,0,0,0,0,0,1,4,4,,,,,,,,,,,,,,,,,,,,,
1.60E+15,8208,-0.608145,32,0,0,0,0,0,0,0,0,0,1,4,4,,,,,,,,,,,,,,,,,,,,,
1.60E+15,8214,-0.59130746,32,0,0,0,32821,16459,32753,32760,32766,32767,1,4,4,,,,,,,,,,,,,,,,,,,,,
1.60E+15,8211,-0.51539516,32,0,0,0,0,0,0,0,0,0,1,4,4,,,,,,,,,,,,,,,,,,,,,
1.60E+15,8200,-0.37730658,32,0,0,0,0,0,0,0,0,0,1,4,4,,,,,,,,,,,,,,,,,,,,,
1.60E+15,8201,-0.16895494,32,0,0,0,0,0,0,0,0,0,1,4,4,,,,,,,,,,,,,,,,,,,,,
1.60E+15,8209,0.1180115,32,0,0,0,0,0,0,0,0,0,1,4,4,,,,,,,,,,,,,,,,,,,,,
1.60E+15,8215,0.4827139,32,0,0,0,0,0,0,0,0,0,1,4,4,,,,,,,,,,,,,,,,,,,,,
1.60E+15,8212,0.9169812,32,0,0,0,0,0,0,0,0,0,1,4,4,,,,,,,,,,,,,,,,,,,,,
1.60E+15,8201,1.4226216,32,0,0,0,0,0,0,0,0,0,1,4,4,,,,,,,,,,,,,,,,,,,,,
1.60E+15,8198,2.0297534,32,0,0,0,0,0,0,0,0,0,1,4,4,,,,,,,,,,,,,,,,,,,,,
1.60E+15,8211,2.8016067,32,0,0,0,0,0,0,0,0,0,1,4,4,,,,,,,,,,,,,,,,,,,,,
1.60E+15,8218,3.8288186,32,0,0,0,0,0,0,0,0,0,1,4,4,,,,,,,,,,,,,,,,,,,,,
1.60E+15,8210,5.228045,32,0,0,0,0,0,0,0,0,0,1,4,4,,,,,,,,,,,,,,,,,,,,,
1.60E+15,8201,7.1482472,32,0,0,0,32765,16328,32681,32765,32764,32768,1,4,4,,,,,,,,,,,,,,,,,,,,,
1.60E+15,8202,9.768991,32,0,0,0,0,0,0,0,0,0,1,4,4,,,,,,,,,,,,,,,,,,,,,
1.60E+15,8210,13.272089,32,0,0,0,0,0,0,0,0,0,1,4,4,,,,,,,,,,,,,,,,,,,,,
1.60E+15,8217,17.777575,32,0,0,0,0,0,0,0,0,0,1,4,4,,,,,,,,,,,,,,,,,,,,,
1.60E+15,8211,23.239586,32,0,0,0,0,0,0,0,0,0,1,4,4,,,,,,,,,,,,,,,,,,,,,
1.60E+15,8200,29.284061,32,0,0,0,0,0,0,0,0,0,1,4,4,,,,,,,,,,,,,,,,,,,,,
1.60E+15,8202,34.963795,32,0,0,0,0,0,0,0,0,0,1,4,4,,,,,,,,,,,,,,,,,,,,,
1.60E+15,8213,38.435776,32,0,0,0,0,0,0,0,0,0,1,4,4,,,,,,,,,,,,,,,,,,,,,
1.60E+15,8220,36.668423,32,0,0,0,0,0,0,0,0,0,1,4,4,,,,,,,,,,,,,,,,,,,,,
1.60E+15,8211,25.549902,32,0,0,1,0,0,0,0,0,0,1,4,4,,,,,,,,,,,,,,,,,,,,,
1.60E+15,8199,1.4288145,32,0,0,1,0,0,0,0,0,0,1,4,4,,,,,,,,,,,,,,,,,,,,,
1.60E+15,8197,-33.243988,32,0,0,1,0,0,0,0,0,0,1,4,4,,,,,,,,,,,,,,,,,,,,,
1.60E+15,8212,-25.8243,32,0,0,1,32808,16505,32678,32765,32765,32766,1,4,4,,,,,,,,,,,,,,,,,,,,,
1.60E+15,8218,7.734251,32,0,0,1,0,0,0,0,0,0,1,4,4,,,,,,,,,,,,,,,,,,,,,
1.60E+15,8208,27.304424,32,0,0,1,0,0,0,0,0,0,1,4,4,,,,,,,,,,,,,,,,,,,,,
1.60E+15,8197,12.878513,32,0,0,1,0,0,0,0,0,0,1,4,4,,,,,,,,,,,,,,,,,,,,,
1.60E+15,8202,-21.542519,32,0,0,1,0,0,0,0,0,0,1,4,4,,,,,,,,,,,,,,,,,,,,,
1.60E+15,8214,-25.927431,32,0,0,1,0,0,0,0,0,0,1,4,4,,,,,,,,,,,,,,,,,,,,,
1.60E+15,8219,41.60275,32,0,0,2,0,0,0,0,0,0,1,4,4,,,,,,,,,,,,,,,,,,,,,
1.60E+15,8209,29.248669,32,0,0,1,0,0,0,0,0,0,1,4,4,,,,,,,,,,,,,,,,,,,,,
1.60E+15,8198,20.81709,32,0,0,1,0,0,0,0,0,0,1,4,4,,,,,,,,,,,,,,,,,,,,,
1.60E+15,8202,-7.5731096,32,0,0,1,0,0,0,0,0,0,1,4,4,,,,,,,,,,,,,,,,,,,,,
1.60E+15,8213,-19.955149,32,0,0,1,0,0,0,0,0,0,1,4,4,,,,,,,,,,,,,,,,,,,,,
1.60E+15,8218,15.630758,32,0,0,1,0,0,0,0,0,0,1,4,4,,,,,,,,,,,,,,,,,,,,,
1.60E+15,8206,27.254904,32,0,0,1,32798,16528,32639,32761,32765,32767,1,4,4,,,,,,,,,,,,,,,,,,,,,
1.60E+15,8199,10.856107,32,0,0,1,0,0,0,0,0,0,1,4,4,,,,,,,,,,,,,,,,,,,,,
1.60E+15,8204,-29.503906,32,0,0,1,0,0,0,0,0,0,1,4,4,,,,,,,,,,,,,,,,,,,,,
1.60E+15,8214,-21.90355,32,0,0,1,0,0,0,0,0,0,1,4,4,,,,,,,,,,,,,,,,,,,,,
1.60E+15,8218,1.7320814,32,0,0,1,0,0,0,0,0,0,1,4,4,,,,,,,,,,,,,,,,,,,,,
1.60E+15,8208,29.337152,32,0,0,1,0,0,0,0,0,0,1,4,4,,,,,,,,,,,,,,,,,,,,,
1.60E+15,8200,20.87802,32,0,0,1,0,0,0,0,0,0,1,4,4,,,,,,,,,,,,,,,,,,,,,
1.60E+15,8202,-17.49666,32,0,0,1,0,0,0,0,0,0,1,4,4,,,,,,,,,,,,,,,,,,,,,
1.60E+15,8215,-34.197292,32,0,0,1,0,0,0,0,0,0,1,4,4,,,,,,,,,,,,,,,,,,,,,
1.60E+15,8216,-37.432545,32,0,0,0,0,0,0,0,0,0,1,4,4,,,,,,,,,,,,,,,,,,,,,
1.60E+15,8207,-33.633743,32,0,0,0,0,0,0,0,0,0,1,4,4,,,,,,,,,,,,,,,,,,,,,
1.60E+15,8197,-26.984093,32,0,0,0,0,0,0,0,0,0,1,4,4,,,,,,,,,,,,,,,,,,,,,
1.60E+15,8202,-19.868933,32,0,0,0,32792,16270,32760,32767,32766,32768,1,4,4,,,,,,,,,,,,,,,,,,,,,
1.60E+15,8214,-13.465908,32,0,0,0,0,0,0,0,0,0,1,4,4,,,,,,,,,,,,,,,,,,,,,
1.60E+15,8217,-8.231189,32,0,0,0,0,0,0,0,0,0,1,4,4,,,,,,,,,,,,,,,,,,,,,
1.60E+15,8208,-4.230697,32,0,0,0,0,0,0,0,0,0,1,4,4,,,,,,,,,,,,,,,,,,,,,
1.60E+15,8197,-1.3382417,32,0,0,0,0,0,0,0,0,0,1,4,4,,,,,,,,,,,,,,,,,,,,,
1.60E+15,8204,0.6511326,32,0,0,0,0,0,0,0,0,0,1,4,4,,,,,,,,,,,,,,,,,,,,,
1.60E+15,8215,1.9524001,32,0,0,0,0,0,0,0,0,0,1,4,4,,,,,,,,,,,,,,,,,,,,,
1.60E+15,8220,2.751314,32,0,0,0,0,0,0,0,0,0,1,4,4,,,,,,,,,,,,,,,,,,,,,
1.60E+15,8204,3.193997,32,0,0,0,0,0,0,0,0,0,1,4,4,,,,,,,,,,,,,,,,,,,,,
1.60E+15,8196,3.3951795,32,0,0,0,0,0,0,0,0,0,1,4,4,,,,,,,,,,,,,,,,,,,,,
1.60E+15,8203,3.445742,32,0,0,0,0,0,0,0,0,0,1,4,4,,,,,,,,,,,,,,,,,,,,,
1.60E+15,8218,3.408581,32,0,0,0,0,0,0,0,0,0,1,4,4,,,,,,,,,,,,,,,,,,,,,
1.60E+15,8221,3.3115928,32,0,0,0,32758,16413,32685,32764,32764,32769,1,4,4,,,,,,,,,,,,,,,,,,,,,
1.60E+15,8205,3.1528249,32,0,0,0,0,0,0,0,0,0,1,4,4,,,,,,,,,,,,,,,,,,,,,
1.60E+15,8194,2.9167287,32,0,0,0,0,0,0,0,0,0,1,4,4,,,,,,,,,,,,,,,,,,,,,
1.60E+15,8203,2.5885718,32,0,0,0,0,0,0,0,0,0,1,4,4,,,,,,,,,,,,,,,,,,,,,
1.60E+15,8216,2.1591203,32,0,0,0,0,0,0,0,0,0,1,4,4,,,,,,,,,,,,,,,,,,,,,
1.60E+15,8218,1.6263021,32,0,0,0,0,0,0,0,0,0,1,4,4,,,,,,,,,,,,,,,,,,,,,
1.60E+15,8208,1.0031842,32,0,0,0,0,0,0,0,0,0,1,4,4,,,,,,,,,,,,,,,,,,,,,
1.60E+15,8198,0.32783422,32,0,0,0,0,0,0,0,0,0,1,4,4,,,,,,,,,,,,,,,,,,,,,
1.60E+15,8204,-0.33831227,32,0,0,0,0,0,0,0,0,0,1,4,4,,,,,,,,,,,,,,,,,,,,,
1.60E+15,8216,-0.92792886,32,0,0,0,0,0,0,0,0,0,1,4,4,,,,,,,,,,,,,,,,,,,,,
1.60E+15,8217,-1.3883168,32,0,0,0,0,0,0,0,0,0,1,4,4,,,,,,,,,,,,,,,,,,,,,
1.60E+15,8205,-1.6900012,32,0,0,0,0,0,0,0,0,0,1,4,4,,,,,,,,,,,,,,,,,,,,,
1.60E+15,8193,-1.8242155,32,0,0,0,32770,16594,32687,32762,32766,32766,1,4,4,,,,,,,,,,,,,,,,,,,,,
1.60E+15,8202,-1.801033,32,0,0,0,0,0,0,0,0,0,1,4,4,,,,,,,,,,,,,,,,,,,,,
1.60E+15,8216,-1.6533588,32,0,0,0,0,0,0,0,0,0,1,4,4,,,,,,,,,,,,,,,,,,,,,
1.60E+15,8218,-1.4364163,32,0,0,0,0,0,0,0,0,0,1,4,4,,,,,,,,,,,,,,,,,,,,,
1.60E+15,8204,-1.2118286,32,0,0,0,0,0,0,0,0,0,1,4,4,,,,,,,,,,,,,,,,,,,,,
1.60E+15,8198,-1.0242552,32,0,0,0,0,0,0,0,0,0,1,4,4,,,,,,,,,,,,,,,,,,,,,
1.60E+15,8206,-0.8891959,32,0,0,0,0,0,0,0,0,0,1,4,4,,,,,,,,,,,,,,,,,,,,,
1.60E+15,8217,-0.7985793,32,0,0,0,0,0,0,0,0,0,1,4,4,,,,,,,,,,,,,,,,,,,,,
1.60E+15,8220,-0.73375154,32,0,0,0,0,0,0,0,0,0,1,4,4,,,,,,,,,,,,,,,,,,,,,
1.60E+15,8204,-0.67323047,32,0,0,0,0,0,0,0,0,0,1,4,4,,,,,,,,,,,,,,,,,,,,,
1.60E+15,8198,-0.5947686,32,0,0,0,0,0,0,0,0,0,1,4,4,,,,,,,,,,,,,,,,,,,,,
1.60E+15,8206,-0.47960153,32,0,0,0,0,0,0,0,0,0,1,4,4,,,,,,,,,,,,,,,,,,,,,
1.60E+15,8218,-0.32042056,32,0,0,0,32818,16540,32631,32762,32765,32766,1,4,4,,,,,,,,,,,,,,,,,,,,,
1.60E+15,8217,-0.123485886,32,0,0,0,0,0,0,0,0,0,1,4,4,,,,,,,,,,,,,,,,,,,,,
1.60E+15,8205,0.10115584,32,0,0,0,0,0,0,0,0,0,1,4,4,,,,,,,,,,,,,,,,,,,,,
1.60E+15,8195,0.351819,32,0,0,0,0,0,0,0,0,0,1,4,4,,,,,,,,,,,,,,,,,,,,,
1.60E+15,8205,0.6350638,32,0,0,0,0,0,0,0,0,0,1,4,4,,,,,,,,,,,,,,,,,,,,,
1.60E+15,8220,0.9525297,32,0,0,0,0,0,0,0,0,0,1,4,4,,,,,,,,,,,,,,,,,,,,,
1.60E+15,8220,1.2902226,32,0,0,0,0,0,0,0,0,0,1,4,4,,,,,,,,,,,,,,,,,,,,,
1.60E+15,8204,1.6222242,32,0,0,0,0,0,0,0,0,0,1,4,4,,,,,,,,,,,,,,,,,,,,,
1.60E+15,8197,1.9225982,32,0,0,0,0,0,0,0,0,0,1,4,4,,,,,,,,,,,,,,,,,,,,,
1.60E+15,8209,2.1705153,32,0,0,0,0,0,0,0,0,0,1,4,4,,,,,,,,,,,,,,,,,,,,,
1.60E+15,8221,2.345668,32,0,0,0,0,0,0,0,0,0,1,4,4,,,,,,,,,,,,,,,,,,,,,
1.60E+15,8218,2.425251,32,0,0,0,0,0,0,0,0,0,1,4,4,,,,,,,,,,,,,,,,,,,,,
1.60E+15,8203,2.3917348,32,0,0,0,32825,16480,32682,32761,32764,32766,1,4,4,,,,,,,,,,,,,,,,,,,,,
1.60E+15,8198,2.2447152,32,0,0,0,0,0,0,0,0,0,1,4,4,,,,,,,,,,,,,,,,,,,,,
1.60E+15,8207,2.0042105,32,0,0,0,0,0,0,0,0,0,1,4,4,,,,,,,,,,,,,,,,,,,,,
1.60E+15,8219,1.7033635,32,0,0,0,0,0,0,0,0,0,1,4,4,,,,,,,,,,,,,,,,,,,,,
1.60E+15,8218,1.3802073,32,0,0,0,0,0,0,0,0,0,1,4,4,,,,,,,,,,,,,,,,,,,,,
1.60E+15,8204,1.076098,32,0,0,0,0,0,0,0,0,0,1,4,4,,,,,,,,,,,,,,,,,,,,,
1.60E+15,8199,0.836486,32,0,0,0,0,0,0,0,0,0,1,4,4,,,,,,,,,,,,,,,,,,,,,
1.60E+15,8209,0.70410866,32,0,0,0,0,0,0,0,0,0,1,4,4,,,,,,,,,,,,,,,,,,,,,
1.60E+15,8219,0.70442045,32,0,0,0,0,0,0,0,0,0,1,4,4,,,,,,,,,,,,,,,,,,,,,
1.60E+15,8215,0.83662075,32,0,0,0,0,0,0,0,0,0,1,4,4,,,,,,,,,,,,,,,,,,,,,
1.60E+15,8200,1.0795575,32,0,0,0,0,0,0,0,0,0,1,4,4,,,,,,,,,,,,,,,,,,,,,
1.60E+15,8195,1.4052267,32,0,0,0,0,0,0,0,0,0,1,4,4,,,,,,,,,,,,,,,,,,,,,
1.60E+15,8206,1.786902,32,0,0,0,32773,16264,32758,32767,32765,32765,1,4,4,,,,,,,,,,,,,,,,,,,,,
1.60E+15,8217,2.1992006,32,0,0,0,0,0,0,0,0,0,1,4,4,,,,,,,,,,,,,,,,,,,,,
1.60E+15,8213,2.6176934,32,0,0,0,0,0,0,0,0,0,1,4,4,,,,,,,,,,,,,,,,,,,,,
1.60E+15,8200,3.0240667,32,0,0,0,0,0,0,0,0,0,1,4,4,,,,,,,,,,,,,,,,,,,,,
1.60E+15,8198,3.4119477,32,0,0,0,0,0,0,0,0,0,1,4,4,,,,,,,,,,,,,,,,,,,,,
1.60E+15,8209,3.7840328,32,0,0,0,0,0,0,0,0,0,1,4,4,,,,,,,,,,,,,,,,,,,,,
1.60E+15,8218,4.1402006,32,0,0,0,0,0,0,0,0,0,1,4,4,,,,,,,,,,,,,,,,,,,,,
1.60E+15,8214,4.4676046,32,0,0,0,0,0,0,0,0,0,1,4,4,,,,,,,,,,,,,,,,,,,,,
1.60E+15,8201,4.7426543,32,0,0,0,0,0,0,0,0,0,1,4,4,,,,,,,,,,,,,,,,,,,,,
1.60E+15,8195,4.9420376,32,0,0,0,0,0,0,0,0,0,1,4,4,,,,,,,,,,,,,,,,,,,,,
1.60E+15,8207,5.0516205,32,0,0,0,0,0,0,0,0,0,1,4,4,,,,,,,,,,,,,,,,,,,,,
1.60E+15,8220,5.067998,32,0,0,0,0,0,0,0,0,0,1,4,4,,,,,,,,,,,,,,,,,,,,,
1.60E+15,8213,4.9970794,32,0,0,0,32784,16405,32697,32765,32764,32765,1,4,4,,,,,,,,,,,,,,,,,,,,,
1.60E+15,8199,4.8547645,32,0,0,0,0,0,0,0,0,0,1,4,4,,,,,,,,,,,,,,,,,,,,,
1.60E+15,8200,4.6678133,32,0,0,0,0,0,0,0,0,0,1,4,4,,,,,,,,,,,,,,,,,,,,,
1.60E+15,8209,4.469573,32,0,0,0,0,0,0,0,0,0,1,4,4,,,,,,,,,,,,,,,,,,,,,
1.60E+15,8218,4.290217,32,0,0,0,0,0,0,0,0,0,1,4,4,,,,,,,,,,,,,,,,,,,,,
1.60E+15,8213,4.148754,32,0,0,0,0,0,0,0,0,0,1,4,4,,,,,,,,,,,,,,,,,,,,,
1.60E+15,8201,4.0521016,32,0,0,0,0,0,0,0,0,0,1,4,4,,,,,,,,,,,,,,,,,,,,,
1.60E+15,8201,3.9976301,32,0,0,0,0,0,0,0,0,0,1,4,4,,,,,,,,,,,,,,,,,,,,,
1.60E+15,8210,3.9740098,32,0,0,0,0,0,0,0,0,0,1,4,4,,,,,,,,,,,,,,,,,,,,,
1.60E+15,8218,3.9621735,32,0,0,0,0,0,0,0,0,0,1,4,4,,,,,,,,,,,,,,,,,,,,,
1.60E+15,8213,3.9419377,32,0,0,0,0,0,0,0,0,0,1,4,4,,,,,,,,,,,,,,,,,,,,,
1.60E+15,8200,3.9042091,32,0,0,0,0,0,0,0,0,0,1,4,4,,,,,,,,,,,,,,,,,,,,,
1.60E+15,8197,3.8589277,32,0,0,0,32786,16559,32649,32761,32766,32767,1,4,4,,,,,,,,,,,,,,,,,,,,,
1.60E+15,8210,3.830215,32,0,0,0,0,0,0,0,0,0,1,4,4,,,,,,,,,,,,,,,,,,,,,
1.60E+15,8219,3.8433893,32,0,0,0,0,0,0,0,0,0,1,4,4,,,,,,,,,,,,,,,,,,,,,
1.60E+15,8212,3.9162173,32,0,0,0,0,0,0,0,0,0,1,4,4,,,,,,,,,,,,,,,,,,,,,
1.60E+15,8201,4.0599427,32,0,0,0,0,0,0,0,0,0,1,4,4,,,,,,,,,,,,,,,,,,,,,
1.60E+15,8198,4.2832503,32,0,0,0,0,0,0,0,0,0,1,4,4,,,,,,,,,,,,,,,,,,,,,
1.60E+15,8210,4.589197,32,0,0,0,0,0,0,0,0,0,1,4,4,,,,,,,,,,,,,,,,,,,,,
1.60E+15,8218,4.9659734,32,0,0,0,0,0,0,0,0,0,1,4,4,,,,,,,,,,,,,,,,,,,,,
1.60E+15,8214,5.382798,32,0,0,0,0,0,0,0,0,0,1,4,4,,,,,,,,,,,,,,,,,,,,,
1.60E+15,8200,5.795881,32,0,0,0,0,0,0,0,0,0,1,4,4,,,,,,,,,,,,,,,,,,,,,
1.60E+15,8201,6.1571236,32,0,0,0,0,0,0,0,0,0,1,4,4,,,,,,,,,,,,,,,,,,,,,
1.60E+15,8212,6.4183173,32,0,0,0,0,0,0,0,0,0,1,4,4,,,,,,,,,,,,,,,,,,,,,
1.60E+15,8217,6.534925,32,0,0,0,32766,16344,32729,32765,32764,32765,1,4,4,,,,,,,,,,,,,,,,,,,,,
1.60E+15,8212,6.477406,32,0,0,0,0,0,0,0,0,0,1,4,4,,,,,,,,,,,,,,,,,,,,,
1.60E+15,8199,6.2482944,32,0,0,0,0,0,0,0,0,0,1,4,4,,,,,,,,,,,,,,,,,,,,,
1.60E+15,8197,5.8896976,32,0,0,0,0,0,0,0,0,0,1,4,4,,,,,,,,,,,,,,,,,,,,,
1.60E+15,8210,5.469446,32,0,0,0,0,0,0,0,0,0,1,4,4,,,,,,,,,,,,,,,,,,,,,
1.60E+15,8219,5.055211,32,0,0,0,0,0,0,0,0,0,1,4,4,,,,,,,,,,,,,,,,,,,,,
1.60E+15,8210,4.697298,32,0,0,0,0,0,0,0,0,0,1,4,4,,,,,,,,,,,,,,,,,,,,,
1.60E+15,8199,4.4284983,32,0,0,0,0,0,0,0,0,0,1,4,4,,,,,,,,,,,,,,,,,,,,,
1.60E+15,8199,4.2690916,32,0,0,0,0,0,0,0,0,0,1,4,4,,,,,,,,,,,,,,,,,,,,,
1.60E+15,8212,4.225044,32,0,0,0,0,0,0,0,0,0,1,4,4,,,,,,,,,,,,,,,,,,,,,
1.60E+15,8219,4.2836933,32,0,0,0,0,0,0,0,0,0,1,4,4,,,,,,,,,,,,,,,,,,,,,
1.60E+15,8212,4.419467,32,0,0,0,0,0,0,0,0,0,1,4,4,,,,,,,,,,,,,,,,,,,,,
1.60E+15,8199,4.6088166,32,0,0,0,32783,16328,32747,32768,32764,32768,1,4,4,,,,,,,,,,,,,,,,,,,,,
1.60E+15,8201,4.8395605,32,0,0,0,0,0,0,0,0,0,1,4,4,,,,,,,,,,,,,,,,,,,,,
1.60E+15,8212,5.10481,32,0,0,0,0,0,0,0,0,0,1,4,4,,,,,,,,,,,,,,,,,,,,,
1.60E+15,8219,5.390573,32,0,0,0,0,0,0,0,0,0,1,4,4,,,,,,,,,,,,,,,,,,,,,
1.60E+15,8210,5.674762,32,0,0,0,0,0,0,0,0,0,1,4,4,,,,,,,,,,,,,,,,,,,,,
1.60E+15,8199,5.939643,32,0,0,0,0,0,0,0,0,0,1,4,4,,,,,,,,,,,,,,,,,,,,,
1.60E+15,8201,6.180041,32,0,0,0,0,0,0,0,0,0,1,4,4,,,,,,,,,,,,,,,,,,,,,
1.60E+15,8213,6.395654,32,0,0,0,0,0,0,0,0,0,1,4,4,,,,,,,,,,,,,,,,,,,,,
1.60E+15,8218,6.577717,32,0,0,0,0,0,0,0,0,0,1,4,4,,,,,,,,,,,,,,,,,,,,,
1.60E+15,8210,6.7065673,32,0,0,0,0,0,0,0,0,0,1,4,4,,,,,,,,,,,,,,,,,,,,,
1.60E+15,8197,6.7612305,32,0,0,0,0,0,0,0,0,0,1,4,4,,,,,,,,,,,,,,,,,,,,,
1.60E+15,8199,6.72723,32,0,0,0,0,0,0,0,0,0,1,4,4,,,,,,,,,,,,,,,,,,,,,
1.60E+15,8213,6.5939627,32,0,0,0,32782,16540,32667,32762,32766,32766,1,4,4,,,,,,,,,,,,,,,,,,,,,
1.60E+15,8219,6.3513746,32,0,0,0,0,0,0,0,0,0,1,4,4,,,,,,,,,,,,,,,,,,,,,
1.60E+15,8209,5.9994984,32,0,0,0,0,0,0,0,0,0,1,4,4,,,,,,,,,,,,,,,,,,,,,
1.60E+15,8195,5.565154,32,0,0,0,0,0,0,0,0,0,1,4,4,,,,,,,,,,,,,,,,,,,,,
1.60E+15,8201,5.104866,32,0,0,0,0,0,0,0,0,0,1,4,4,,,,,,,,,,,,,,,,,,,,,
1.60E+15,8215,4.6844683,32,0,0,0,0,0,0,0,0,0,1,4,4,,,,,,,,,,,,,,,,,,,,,
1.60E+15,8217,4.3521047,32,0,0,0,0,0,0,0,0,0,1,4,4,,,,,,,,,,,,,,,,,,,,,
1.60E+15,8206,4.1280417,32,0,0,0,0,0,0,0,0,0,1,4,4,,,,,,,,,,,,,,,,,,,,,
1.60E+15,8195,4.0134044,32,0,0,0,0,0,0,0,0,0,1,4,4,,,,,,,,,,,,,,,,,,,,,
1.60E+15,8197,3.9982975,32,0,0,0,0,0,0,0,0,0,1,4,4,,,,,,,,,,,,,,,,,,,,,
1.60E+15,8212,4.0586905,32,0,0,0,0,0,0,0,0,0,1,4,4,,,,,,,,,,,,,,,,,,,,,
1.60E+15,8219,4.1546125,32,0,0,0,0,0,0,0,0,0,1,4,4,,,,,,,,,,,,,,,,,,,,,
1.60E+15,8206,4.3265657,32,0,16,0,32791,16485,32680,32761,32765,32767,1,2,4,,,,,,,,,,,,,,,,,,,,,
1.60E+15,8199,4.414578,32,0,16,0,0,0,0,0,0,0,1,2,4,,,,,,,,,,,,,,,,,,,,,
1.60E+15,8202,4.4767885,32,0,16,0,0,0,0,0,0,0,1,2,4,,,,,,,,,,,,,,,,,,,,,
1.60E+15,8212,4.529835,32,0,16,0,0,0,0,0,0,0,1,2,4,,,,,,,,,,,,,,,,,,,,,
1.60E+15,8217,4.5839787,32,0,16,0,0,0,0,0,0,0,1,2,4,,,,,,,,,,,,,,,,,,,,,
1.60E+15,8207,4.6389637,32,0,16,0,0,0,0,0,0,0,1,2,4,,,,,,,,,,,,,,,,,,,,,
1.60E+15,8199,4.691755,32,0,16,0,0,0,0,0,0,0,1,2,4,,,,,,,,,,,,,,,,,,,,,
1.60E+15,8199,4.738884,32,0,16,0,0,0,0,0,0,0,1,2,4,,,,,,,,,,,,,,,,,,,,,
1.60E+15,8212,4.7678695,32,0,16,0,0,0,0,0,0,0,1,2,4,,,,,,,,,,,,,,,,,,,,,
1.60E+15,8218,4.7526636,32,0,16,0,0,0,0,0,0,0,1,2,4,,,,,,,,,,,,,,,,,,,,,
1.60E+15,8207,4.665302,32,0,16,0,0,0,0,0,0,0,1,2,4,,,,,,,,,,,,,,,,,,,,,
1.60E+15,8196,4.494912,32,0,16,0,0,0,0,0,0,0,1,2,4,,,,,,,,,,,,,,,,,,,,,
1.60E+15,8200,4.2546883,32,0,16,0,32778,16226,32765,32768,32764,32765,1,2,4,,,,,,,,,,,,,,,,,,,,,
1.60E+15,8214,3.9711418,32,0,16,0,0,0,0,0,0,0,1,2,4,,,,,,,,,,,,,,,,,,,,,
1.60E+15,8219,3.6709054,32,0,16,0,0,0,0,0,0,0,1,2,4,,,,,,,,,,,,,,,,,,,,,
1.60E+15,8210,3.379877,32,0,16,0,0,0,0,0,0,0,1,2,4,,,,,,,,,,,,,,,,,,,,,
1.60E+15,8199,3.12957,32,0,16,0,0,0,0,0,0,0,1,2,4,,,,,,,,,,,,,,,,,,,,,
1.60E+15,8203,2.9533834,32,0,16,0,0,0,0,0,0,0,1,2,4,,,,,,,,,,,,,,,,,,,,,
1.60E+15,8213,2.870215,32,0,16,0,0,0,0,0,0,0,1,2,4,,,,,,,,,,,,,,,,,,,,,
1.60E+15,8219,2.8726046,32,0,16,0,0,0,0,0,0,0,1,2,4,,,,,,,,,,,,,,,,,,,,,
1.60E+15,8207,2.9343622,32,0,16,0,0,0,0,0,0,0,1,2,4,,,,,,,,,,,,,,,,,,,,,
1.60E+15,8196,3.0294414,32,0,16,0,0,0,0,0,0,0,1,2,4,,,,,,,,,,,,,,,,,,,,,
1.60E+15,8200,3.141262,32,0,16,0,0,0,0,0,0,0,1,2,4,,,,,,,,,,,,,,,,,,,,,
1.60E+15,8213,3.256314,32,0,16,0,0,0,0,0,0,0,1,2,4,,,,,,,,,,,,,,,,,,,,,
1.60E+15,8219,3.3572302,32,0,16,0,32795,16435,32693,32763,32764,32766,1,2,4,,,,,,,,,,,,,,,,,,,,,
1.60E+15,8207,3.4294214,32,0,16,0,0,0,0,0,0,0,1,2,4,,,,,,,,,,,,,,,,,,,,,
1.60E+15,8196,3.4724483,32,0,16,0,0,0,0,0,0,0,1,2,4,,,,,,,,,,,,,,,,,,,,,
1.60E+15,8201,3.4975514,32,0,16,0,0,0,0,0,0,0,1,2,4,,,,,,,,,,,,,,,,,,,,,
1.60E+15,8213,3.5105584,32,0,16,0,0,0,0,0,0,0,1,2,4,,,,,,,,,,,,,,,,,,,,,
1.60E+15,8218,3.5024693,32,0,16,0,0,0,0,0,0,0,1,2,4,,,,,,,,,,,,,,,,,,,,,
1.60E+15,8209,3.4614847,32,0,16,0,0,0,0,0,0,0,1,2,4,,,,,,,,,,,,,,,,,,,,,
1.60E+15,8198,3.3914094,32,0,16,0,0,0,0,0,0,0,1,2,4,,,,,,,,,,,,,,,,,,,,,
1.60E+15,8202,3.310593,32,0,16,0,0,0,0,0,0,0,1,2,4,,,,,,,,,,,,,,,,,,,,,
1.60E+15,8215,3.2295191,32,0,16,0,0,0,0,0,0,0,1,2,4,,,,,,,,,,,,,,,,,,,,,
1.60E+15,8217,3.1338143,32,0,16,0,0,0,0,0,0,0,1,2,4,,,,,,,,,,,,,,,,,,,,,
1.60E+15,8206,2.9933944,32,0,16,0,0,0,0,0,0,0,1,2,4,,,,,,,,,,,,,,,,,,,,,
1.60E+15,8198,2.7869384,32,0,16,0,32753,16609,32632,32759,32766,32766,1,2,4,,,,,,,,,,,,,,,,,,,,,
1.60E+15,8203,2.5162768,32,0,16,0,0,0,0,0,0,0,1,2,4,,,,,,,,,,,,,,,,,,,,,
1.60E+15,8216,2.2022521,32,0,16,0,0,0,0,0,0,0,1,2,4,,,,,,,,,,,,,,,,,,,,,
1.60E+15,8217,1.8766174,32,0,16,0,0,0,0,0,0,0,1,2,4,,,,,,,,,,,,,,,,,,,,,
1.60E+15,8206,1.5834997,32,0,16,0,0,0,0,0,0,0,1,2,4,,,,,,,,,,,,,,,,,,,,,
1.60E+15,8194,1.3819989,32,0,16,0,0,0,0,0,0,0,1,2,4,,,,,,,,,,,,,,,,,,,,,
1.60E+15,8201,1.3327833,32,0,16,0,0,0,0,0,0,0,1,2,4,,,,,,,,,,,,,,,,,,,,,
1.60E+15,8213,1.4707005,32,0,16,0,0,0,0,0,0,0,1,2,4,,,,,,,,,,,,,,,,,,,,,
1.60E+15,8217,1.7872151,32,0,16,0,0,0,0,0,0,0,1,2,4,,,,,,,,,,,,,,,,,,,,,
1.60E+15,8205,2.239791,32,0,16,0,0,0,0,0,0,0,1,2,4,,,,,,,,,,,,,,,,,,,,,
1.60E+15,8196,2.7754595,32,0,16,0,0,0,0,0,0,0,1,2,4,,,,,,,,,,,,,,,,,,,,,
1.60E+15,8200,3.343831,32,0,16,0,0,0,0,0,0,0,1,2,4,,,,,,,,,,,,,,,,,,,,,
1.60E+15,8214,3.8947766,32,0,16,0,32796,16323,32742,32766,32764,32765,1,2,4,,,,,,,,,,,,,,,,,,,,,
1.60E+15,8216,4.378874,32,0,16,0,0,0,0,0,0,0,1,2,4,,,,,,,,,,,,,,,,,,,,,
1.60E+15,8206,4.761873,32,0,16,0,0,0,0,0,0,0,1,2,4,,,,,,,,,,,,,,,,,,,,,
1.60E+15,8198,5.040633,32,0,16,0,0,0,0,0,0,0,1,2,4,,,,,,,,,,,,,,,,,,,,,
1.60E+15,8203,5.241077,32,0,16,0,0,0,0,0,0,0,1,2,4,,,,,,,,,,,,,,,,,,,,,
1.60E+15,8217,5.3986325,32,0,16,0,0,0,0,0,0,0,1,2,4,,,,,,,,,,,,,,,,,,,,,
1.60E+15,8216,5.5432386,32,0,16,0,0,0,0,0,0,0,1,2,4,,,,,,,,,,,,,,,,,,,,,
1.60E+15,8203,5.701457,32,0,16,0,0,0,0,0,0,0,1,2,4,,,,,,,,,,,,,,,,,,,,,
1.60E+15,8195,5.9029584,32,0,16,0,0,0,0,0,0,0,1,2,4,,,,,,,,,,,,,,,,,,,,,
1.60E+15,8205,6.172616,32,0,16,0,0,0,0,0,0,0,1,2,4,,,,,,,,,,,,,,,,,,,,,
1.60E+15,8217,6.511206,32,0,16,0,0,0,0,0,0,0,1,2,4,,,,,,,,,,,,,,,,,,,,,
1.60E+15,8215,6.8875823,32,0,16,0,0,0,0,0,0,0,1,2,4,,,,,,,,,,,,,,,,,,,,,
1.60E+15,8202,7.255232,32,0,16,0,32791,16333,32713,32768,32764,32767,1,2,4,,,,,,,,,,,,,,,,,,,,,
1.60E+15,8193,7.5764613,32,0,16,0,0,0,0,0,0,0,1,2,4,,,,,,,,,,,,,,,,,,,,,
1.60E+15,8206,7.829237,32,0,16,0,0,0,0,0,0,0,1,2,4,,,,,,,,,,,,,,,,,,,,,
1.60E+15,8216,7.9963675,32,0,16,0,0,0,0,0,0,0,1,2,4,,,,,,,,,,,,,,,,,,,,,
1.60E+15,8217,8.059661,32,0,16,0,0,0,0,0,0,0,1,2,4,,,,,,,,,,,,,,,,,,,,,
1.60E+15,8201,8.010195,32,0,16,0,0,0,0,0,0,0,1,2,4,,,,,,,,,,,,,,,,,,,,,
1.60E+15,8194,7.858266,32,0,16,0,0,0,0,0,0,0,1,2,4,,,,,,,,,,,,,,,,,,,,,
1.60E+15,8206,7.6238303,32,0,16,0,0,0,0,0,0,0,1,2,4,,,,,,,,,,,,,,,,,,,,,
1.60E+15,8219,7.313933,32,0,16,0,0,0,0,0,0,0,1,2,4,,,,,,,,,,,,,,,,,,,,,
1.60E+15,8214,6.9125605,32,0,16,0,0,0,0,0,0,0,1,2,4,,,,,,,,,,,,,,,,,,,,,
1.60E+15,8201,6.394448,32,0,16,0,0,0,0,0,0,0,1,2,4,,,,,,,,,,,,,,,,,,,,,
1.60E+15,8193,5.746971,32,0,16,0,0,0,0,0,0,0,1,2,4,,,,,,,,,,,,,,,,,,,,,
1.60E+15,8206,4.9781823,32,0,16,0,32817,16580,32611,32760,32766,32767,1,2,4,,,,,,,,,,,,,,,,,,,,,
1.60E+15,8219,4.1104836,32,0,16,0,0,0,0,0,0,0,1,2,4,,,,,,,,,,,,,,,,,,,,,
1.60E+15,8214,3.1776667,32,0,16,0,0,0,0,0,0,0,1,2,4,,,,,,,,,,,,,,,,,,,,,
1.60E+15,8199,2.2320187,32,0,16,0,0,0,0,0,0,0,1,2,4,,,,,,,,,,,,,,,,,,,,,
1.60E+15,8197,1.3460495,32,0,16,0,0,0,0,0,0,0,1,2,4,,,,,,,,,,,,,,,,,,,,,
1.60E+15,8206,0.59410095,32,0,16,0,0,0,0,0,0,0,1,2,4,,,,,,,,,,,,,,,,,,,,,
1.60E+15,8216,0.02373529,32,0,16,0,0,0,0,0,0,0,1,2,4,,,,,,,,,,,,,,,,,,,,,
1.60E+15,8213,-0.35752833,32,0,16,0,0,0,0,0,0,0,1,2,4,,,,,,,,,,,,,,,,,,,,,
1.60E+15,8199,-0.5707687,32,0,16,0,0,0,0,0,0,0,1,2,4,,,,,,,,,,,,,,,,,,,,,
1.60E+15,8195,-0.64691937,32,0,16,0,0,0,0,0,0,0,1,2,4,,,,,,,,,,,,,,,,,,,,,
1.60E+15,8208,-0.62017864,32,0,16,0,0,0,0,0,0,0,1,2,4,,,,,,,,,,,,,,,,,,,,,
1.60E+15,8219,-0.53019065,32,0,16,0,0,0,0,0,0,0,1,2,4,,,,,,,,,,,,,,,,,,,,,
1.60E+15,8212,-0.41575056,32,0,16,0,32796,16463,32685,32762,32765,32767,1,2,4,,,,,,,,,,,,,,,,,,,,,
1.60E+15,8198,-0.29757106,32,0,16,0,0,0,0,0,0,0,1,2,4,,,,,,,,,,,,,,,,,,,,,
1.60E+15,8195,-0.16847958,32,0,16,0,0,0,0,0,0,0,1,2,4,,,,,,,,,,,,,,,,,,,,,
1.60E+15,8209,-0.005735903,32,0,16,0,0,0,0,0,0,0,1,2,4,,,,,,,,,,,,,,,,,,,,,
1.60E+15,8217,0.20485842,32,0,16,0,0,0,0,0,0,0,1,2,4,,,,,,,,,,,,,,,,,,,,,
1.60E+15,8214,0.45785153,32,0,16,0,0,0,0,0,0,0,1,2,4,,,,,,,,,,,,,,,,,,,,,
1.60E+15,8201,0.73855036,32,0,16,0,0,0,0,0,0,0,1,2,4,,,,,,,,,,,,,,,,,,,,,
1.60E+15,8199,1.0363201,32,0,16,0,0,0,0,0,0,0,1,2,4,,,,,,,,,,,,,,,,,,,,,
1.60E+15,8208,1.3417293,32,0,16,0,0,0,0,0,0,0,1,2,4,,,,,,,,,,,,,,,,,,,,,
1.60E+15,8219,1.6347394,32,0,16,0,0,0,0,0,0,0,1,2,4,,,,,,,,,,,,,,,,,,,,,
1.60E+15,8212,1.8843713,32,0,16,0,0,0,0,0,0,0,1,2,4,,,,,,,,,,,,,,,,,,,,,
1.60E+15,8199,2.0633452,32,0,16,0,0,0,0,0,0,0,1,2,4,,,,,,,,,,,,,,,,,,,,,
1.60E+15,8195,2.1612134,32,0,16,0,32779,16289,32750,32768,32764,32766,1,2,4,,,,,,,,,,,,,,,,,,,,,
1.60E+15,8210,2.1819568,32,0,16,0,0,0,0,0,0,0,1,2,4,,,,,,,,,,,,,,,,,,,,,
1.60E+15,8217,2.1334405,32,0,16,0,0,0,0,0,0,0,1,2,4,,,,,,,,,,,,,,,,,,,,,
1.60E+15,8210,2.0259476,32,0,16,0,0,0,0,0,0,0,1,2,4,,,,,,,,,,,,,,,,,,,,,
1.60E+15,8195,1.8812493,32,0,16,0,0,0,0,0,0,0,1,2,4,,,,,,,,,,,,,,,,,,,,,
1.60E+15,8193,1.7359368,32,0,16,0,0,0,0,0,0,0,1,2,4,,,,,,,,,,,,,,,,,,,,,
1.60E+15,8209,1.627581,32,0,16,0,0,0,0,0,0,0,1,2,4,,,,,,,,,,,,,,,,,,,,,
1.60E+15,8217,1.5750725,32,0,16,0,0,0,0,0,0,0,1,2,4,,,,,,,,,,,,,,,,,,,,,
1.60E+15,8210,1.574587,32,0,16,0,0,0,0,0,0,0,1,2,4,,,,,,,,,,,,,,,,,,,,,
1.60E+15,8197,1.6140529,32,0,16,0,0,0,0,0,0,0,1,2,4,,,,,,,,,,,,,,,,,,,,,
1.60E+15,8193,1.6856554,32,0,16,0,0,0,0,0,0,0,1,2,4,,,,,,,,,,,,,,,,,,,,,
1.60E+15,8209,1.7806213,32,0,16,0,0,0,0,0,0,0,1,2,4,,,,,,,,,,,,,,,,,,,,,
1.60E+15,8217,1.8760091,32,0,16,0,32752,16456,32688,32762,32765,32766,1,2,4,,,,,,,,,,,,,,,,,,,,,
1.60E+15,8209,1.9343784,32,0,16,0,0,0,0,0,0,0,1,2,4,,,,,,,,,,,,,,,,,,,,,
1.60E+15,8195,1.9206672,32,0,16,0,0,0,0,0,0,0,1,2,4,,,,,,,,,,,,,,,,,,,,,
1.60E+15,8193,1.8183367,32,0,16,0,0,0,0,0,0,0,1,2,4,,,,,,,,,,,,,,,,,,,,,
1.60E+15,8210,1.629575,32,0,16,0,0,0,0,0,0,0,1,2,4,,,,,,,,,,,,,,,,,,,,,
1.60E+15,8218,1.3663467,32,0,16,0,0,0,0,0,0,0,1,2,4,,,,,,,,,,,,,,,,,,,,,
1.60E+15,8208,1.0496099,32,0,16,0,0,0,0,0,0,0,1,2,4,,,,,,,,,,,,,,,,,,,,,
1.60E+15,8195,0.71703595,32,0,16,0,0,0,0,0,0,0,1,2,4,,,,,,,,,,,,,,,,,,,,,
1.60E+15,8196,0.42248175,32,0,16,0,0,0,0,0,0,0,1,2,4,,,,,,,,,,,,,,,,,,,,,
1.60E+15,8210,0.21820801,32,0,16,0,0,0,0,0,0,0,1,2,4,,,,,,,,,,,,,,,,,,,,,
1.60E+15,8220,0.13300182,32,0,16,0,0,0,0,0,0,0,1,2,4,,,,,,,,,,,,,,,,,,,,,
1.60E+15,8210,0.16741663,32,0,16,0,0,0,0,0,0,0,1,2,4,,,,,,,,,,,,,,,,,,,,,
1.60E+15,8195,0.30762538,32,0,16,0,32792,16548,32663,32760,32766,32766,1,2,4,,,,,,,,,,,,,,,,,,,,,
1.60E+15,8195,0.53731215,32,0,16,0,0,0,0,0,0,0,1,2,4,,,,,,,,,,,,,,,,,,,,,
1.60E+15,8209,0.8335879,32,0,16,0,0,0,0,0,0,0,1,2,4,,,,,,,,,,,,,,,,,,,,,
1.60E+15,8218,1.1584178,32,0,16,0,0,0,0,0,0,0,1,2,4,,,,,,,,,,,,,,,,,,,,,
1.60E+15,8208,1.4643346,32,0,16,0,0,0,0,0,0,0,1,2,4,,,,,,,,,,,,,,,,,,,,,
1.60E+15,8193,1.713442,32,0,16,0,0,0,0,0,0,0,1,2,4,,,,,,,,,,,,,,,,,,,,,
1.60E+15,8193,1.8891579,32,0,16,0,0,0,0,0,0,0,1,2,4,,,,,,,,,,,,,,,,,,,,,
1.60E+15,8210,1.9885515,32,0,16,0,0,0,0,0,0,0,1,2,4,,,,,,,,,,,,,,,,,,,,,
1.60E+15,8217,2.0077085,32,0,16,0,0,0,0,0,0,0,1,2,4,,,,,,,,,,,,,,,,,,,,,
1.60E+15,8207,1.9399877,32,0,16,0,0,0,0,0,0,0,1,2,4,,,,,,,,,,,,,,,,,,,,,
1.60E+15,8192,1.7869132,32,0,16,0,0,0,0,0,0,0,1,2,4,,,,,,,,,,,,,,,,,,,,,
1.60E+15,8193,1.5635861,32,0,16,0,0,0,0,0,0,0,1,2,4,,,,,,,,,,,,,,,,,,,,,
1.60E+15,8212,1.2887667,32,0,16,0,32806,16308,32749,32766,32765,32767,1,2,4,,,,,,,,,,,,,,,,,,,,,
1.60E+15,8218,0.97254044,32,0,16,0,0,0,0,0,0,0,1,2,4,,,,,,,,,,,,,,,,,,,,,
1.60E+15,8208,0.61834854,32,0,16,0,0,0,0,0,0,0,1,2,4,,,,,,,,,,,,,,,,,,,,,
1.60E+15,8197,0.23561954,32,0,16,0,0,0,0,0,0,0,1,2,4,,,,,,,,,,,,,,,,,,,,,
1.60E+15,8197,-0.15656699,32,0,16,0,0,0,0,0,0,0,1,2,4,,,,,,,,,,,,,,,,,,,,,
1.60E+15,8211,-0.54269135,32,0,16,0,0,0,0,0,0,0,1,2,4,,,,,,,,,,,,,,,,,,,,,
1.60E+15,8217,-0.9249615,32,0,16,0,0,0,0,0,0,0,1,2,4,,,,,,,,,,,,,,,,,,,,,
1.60E+15,8208,-1.3187422,32,0,16,0,0,0,0,0,0,0,1,2,4,,,,,,,,,,,,,,,,,,,,,
1.60E+15,8195,-1.7332363,32,0,16,0,0,0,0,0,0,0,1,2,4,,,,,,,,,,,,,,,,,,,,,
1.60E+15,8200,-2.1601727,32,0,16,0,0,0,0,0,0,0,1,2,4,,,,,,,,,,,,,,,,,,,,,
1.60E+15,8213,-2.580973,32,0,16,0,0,0,0,0,0,0,1,2,4,,,,,,,,,,,,,,,,,,,,,
1.60E+15,8216,-2.9772885,32,0,16,0,0,0,0,0,0,0,1,2,4,,,,,,,,,,,,,,,,,,,,,
1.60E+15,8206,-3.3275042,32,0,16,0,32784,16332,32716,32767,32764,32767,1,2,4,,,,,,,,,,,,,,,,,,,,,
1.60E+15,8192,-3.5970092,32,0,16,0,0,0,0,0,0,0,1,2,4,,,,,,,,,,,,,,,,,,,,,
1.60E+15,8195,-3.7437418,32,0,16,0,0,0,0,0,0,0,1,2,4,,,,,,,,,,,,,,,,,,,,,
1.60E+15,8211,-3.742274,32,0,16,0,0,0,0,0,0,0,1,2,4,,,,,,,,,,,,,,,,,,,,,
1.60E+15,8216,-3.6042368,32,0,16,0,0,0,0,0,0,0,1,2,4,,,,,,,,,,,,,,,,,,,,,
1.60E+15,8204,-3.3734238,32,0,16,0,0,0,0,0,0,0,1,2,4,,,,,,,,,,,,,,,,,,,,,
1.60E+15,8195,-3.1008897,32,0,16,0,0,0,0,0,0,0,1,2,4,,,,,,,,,,,,,,,,,,,,,
1.60E+15,8198,-2.8257039,32,0,16,0,0,0,0,0,0,0,1,2,4,,,,,,,,,,,,,,,,,,,,,
1.60E+15,8211,-2.5744545,32,0,16,0,0,0,0,0,0,0,1,2,4,,,,,,,,,,,,,,,,,,,,,
1.60E+15,8213,-2.3663273,32,0,16,0,0,0,0,0,0,0,1,2,4,,,,,,,,,,,,,,,,,,,,,
1.60E+15,8204,-2.2086034,32,0,16,0,0,0,0,0,0,0,1,2,4,,,,,,,,,,,,,,,,,,,,,
1.60E+15,8192,-2.0865426,32,0,16,0,0,0,0,0,0,0,1,2,4,,,,,,,,,,,,,,,,,,,,,
1.60E+15,8199,-1.9643317,32,0,16,0,32761,16256,32735,32767,32765,32766,1,2,4,,,,,,,,,,,,,,,,,,,,,
1.60E+15,8215,-1.8024431,32,0,16,0,0,0,0,0,0,0,1,2,4,,,,,,,,,,,,,,,,,,,,,
1.60E+15,8217,-1.5757307,32,0,16,0,0,0,0,0,0,0,1,2,4,,,,,,,,,,,,,,,,,,,,,
1.60E+15,8204,-1.2759492,32,0,16,0,0,0,0,0,0,0,1,2,4,,,,,,,,,,,,,,,,,,,,,
1.60E+15,8192,-0.90251714,32,0,16,0,0,0,0,0,0,0,1,2,4,,,,,,,,,,,,,,,,,,,,,
1.60E+15,8200,-0.46096,32,0,16,0,0,0,0,0,0,0,1,2,4,,,,,,,,,,,,,,,,,,,,,
1.60E+15,8210,0.024349198,32,0,16,0,0,0,0,0,0,0,1,2,4,,,,,,,,,,,,,,,,,,,,,
1.60E+15,8215,0.501053,32,0,16,0,0,0,0,0,0,0,1,2,4,,,,,,,,,,,,,,,,,,,,,
1.60E+15,8202,0.9015879,32,0,16,0,0,0,0,0,0,0,1,2,4,,,,,,,,,,,,,,,,,,,,,
1.60E+15,8190,1.1707907,32,0,16,0,0,0,0,0,0,0,1,2,4,,,,,,,,,,,,,,,,,,,,,
1.60E+15,8198,1.2837825,32,0,16,0,0,0,0,0,0,0,1,2,4,,,,,,,,,,,,,,,,,,,,,
1.60E+15,8211,1.2427555,32,0,16,0,0,0,0,0,0,0,1,2,4,,,,,,,,,,,,,,,,,,,,,
1.60E+15,8216,1.0660828,32,0,16,0,32809,16448,32710,32764,32764,32766,1,2,4,,,,,,,,,,,,,,,,,,,,,
1.60E+15,8203,0.78676367,32,0,16,0,0,0,0,0,0,0,1,2,4,,,,,,,,,,,,,,,,,,,,,
1.60E+15,8192,0.45668763,32,0,16,0,0,0,0,0,0,0,1,2,4,,,,,,,,,,,,,,,,,,,,,
1.60E+15,8197,0.13988817,32,0,16,0,0,0,0,0,0,0,1,2,4,,,,,,,,,,,,,,,,,,,,,
1.60E+15,8211,-0.10937961,32,0,16,0,0,0,0,0,0,0,1,2,4,,,,,,,,,,,,,,,,,,,,,
1.60E+15,8215,-0.26464164,32,0,16,0,0,0,0,0,0,0,1,2,4,,,,,,,,,,,,,,,,,,,,,
1.60E+15,8202,-0.32343304,32,0,16,0,0,0,0,0,0,0,1,2,4,,,,,,,,,,,,,,,,,,,,,
1.60E+15,8191,-0.28954896,32,0,16,0,0,0,0,0,0,0,1,2,4,,,,,,,,,,,,,,,,,,,,,
1.60E+15,8196,-0.16515926,32,0,16,0,0,0,0,0,0,0,1,2,4,,,,,,,,,,,,,,,,,,,,,
1.60E+15,8213,0.038443238,32,0,16,0,0,0,0,0,0,0,1,2,4,,,,,,,,,,,,,,,,,,,,,
1.60E+15,8214,0.28941423,32,0,16,0,0,0,0,0,0,0,1,2,4,,,,,,,,,,,,,,,,,,,,,
1.60E+15,8201,0.54224944,32,0,16,0,0,0,0,0,0,0,1,2,4,,,,,,,,,,,,,,,,,,,,,
1.60E+15,8190,0.75730634,32,0,16,0,32779,16560,32672,32760,32765,32766,1,2,4,,,,,,,,,,,,,,,,,,,,,
1.60E+15,8199,0.91138613,32,0,16,0,0,0,0,0,0,0,1,2,4,,,,,,,,,,,,,,,,,,,,,
1.60E+15,8212,0.99037564,32,0,16,0,0,0,0,0,0,0,1,2,4,,,,,,,,,,,,,,,,,,,,,
1.60E+15,8215,0.9783813,32,0,16,0,0,0,0,0,0,0,1,2,4,,,,,,,,,,,,,,,,,,,,,
1.60E+15,8202,0.8601328,32,0,16,0,0,0,0,0,0,0,1,2,4,,,,,,,,,,,,,,,,,,,,,
1.60E+15,8192,0.6321226,32,0,16,0,0,0,0,0,0,0,1,2,4,,,,,,,,,,,,,,,,,,,,,
1.60E+15,8203,0.30490434,32,0,16,0,0,0,0,0,0,0,1,2,4,,,,,,,,,,,,,,,,,,,,,
1.60E+15,8216,-0.10677817,32,0,16,0,0,0,0,0,0,0,1,2,4,,,,,,,,,,,,,,,,,,,,,
1.60E+15,8216,-0.5900305,32,0,16,0,0,0,0,0,0,0,1,2,4,,,,,,,,,,,,,,,,,,,,,
1.60E+15,8201,-1.1245825,32,0,16,0,0,0,0,0,0,0,1,2,4,,,,,,,,,,,,,,,,,,,,,
1.60E+15,8191,-1.6696864,32,0,16,0,0,0,0,0,0,0,1,2,4,,,,,,,,,,,,,,,,,,,,,
1.60E+15,8197,-2.168004,32,0,16,0,0,0,0,0,0,0,1,2,4,,,,,,,,,,,,,,,,,,,,,
1.60E+15,8214,-2.5678403,32,0,16,0,32790,16327,32728,32764,32766,32766,1,2,4,,,,,,,,,,,,,,,,,,,,,
1.60E+15,8211,-2.8418536,32,0,16,0,0,0,0,0,0,0,1,2,4,,,,,,,,,,,,,,,,,,,,,
1.60E+15,8198,-2.9839957,32,0,16,0,0,0,0,0,0,0,1,2,4,,,,,,,,,,,,,,,,,,,,,
1.60E+15,8189,-2.9940305,32,0,16,0,0,0,0,0,0,0,1,2,4,,,,,,,,,,,,,,,,,,,,,
1.60E+15,8201,-2.872617,32,0,16,0,0,0,0,0,0,0,1,2,4,,,,,,,,,,,,,,,,,,,,,
1.60E+15,8213,-2.6333249,32,0,16,0,0,0,0,0,0,0,1,2,4,,,,,,,,,,,,,,,,,,,,,
1.60E+15,8213,-2.3133047,32,0,16,0,0,0,0,0,0,0,1,2,4,,,,,,,,,,,,,,,,,,,,,
1.60E+15,8200,-1.9655219,32,0,16,0,0,0,0,0,0,0,1,2,4,,,,,,,,,,,,,,,,,,,,,
1.60E+15,8191,-1.6391473,32,0,16,0,0,0,0,0,0,0,1,2,4,,,,,,,,,,,,,,,,,,,,,
1.60E+15,8204,-1.3687501,32,0,16,0,0,0,0,0,0,0,1,2,4,,,,,,,,,,,,,,,,,,,,,
1.60E+15,8216,-1.1782221,32,0,16,0,0,0,0,0,0,0,1,2,4,,,,,,,,,,,,,,,,,,,,,
1.60E+15,8215,-1.0850654,32,0,16,0,0,0,0,0,0,0,1,2,4,,,,,,,,,,,,,,,,,,,,,
1.60E+15,8200,-1.0933813,32,0,16,0,32793,16302,32680,32769,32765,32766,1,2,4,,,,,,,,,,,,,,,,,,,,,
1.60E+15,8191,-1.1848528,32,0,16,0,0,0,0,0,0,0,1,2,4,,,,,,,,,,,,,,,,,,,,,
1.60E+15,8202,-1.3250301,32,0,16,0,0,0,0,0,0,0,1,2,4,,,,,,,,,,,,,,,,,,,,,
1.60E+15,8214,-1.4824235,32,0,16,0,0,0,0,0,0,0,1,2,4,,,,,,,,,,,,,,,,,,,,,
1.60E+15,8210,-1.6393716,32,0,16,0,0,0,0,0,0,0,1,2,4,,,,,,,,,,,,,,,,,,,,,
1.60E+15,8198,-1.783962,32,0,16,0,0,0,0,0,0,0,1,2,4,,,,,,,,,,,,,,,,,,,,,
1.60E+15,8189,-1.8983771,32,0,16,0,0,0,0,0,0,0,1,2,4,,,,,,,,,,,,,,,,,,,,,
1.60E+15,8202,-1.9634418,32,0,16,0,0,0,0,0,0,0,1,2,4,,,,,,,,,,,,,,,,,,,,,
1.60E+15,8214,-1.9756416,32,0,16,0,0,0,0,0,0,0,1,2,4,,,,,,,,,,,,,,,,,,,,,
1.60E+15,8211,-1.9536923,32,0,16,0,0,0,0,0,0,0,1,2,4,,,,,,,,,,,,,,,,,,,,,
1.60E+15,8198,-1.9236567,32,0,16,0,0,0,0,0,0,0,1,2,4,,,,,,,,,,,,,,,,,,,,,
1.60E+15,8191,-1.9001563,32,0,16,0,0,0,0,0,0,0,1,2,4,,,,,,,,,,,,,,,,,,,,,
1.60E+15,8203,-1.8851049,32,0,16,0,32811,16558,32657,32763,32766,32765,1,2,4,,,,,,,,,,,,,,,,,,,,,
1.60E+15,8215,-1.8818084,32,0,16,0,0,0,0,0,0,0,1,2,4,,,,,,,,,,,,,,,,,,,,,
1.60E+15,8212,-1.9013088,32,0,16,0,0,0,0,0,0,0,1,2,4,,,,,,,,,,,,,,,,,,,,,
1.60E+15,8199,-1.9506264,32,0,16,0,0,0,0,0,0,0,1,2,4,,,,,,,,,,,,,,,,,,,,,
1.60E+15,8193,-2.0204635,32,0,16,0,0,0,0,0,0,0,1,2,4,,,,,,,,,,,,,,,,,,,,,
1.60E+15,8204,-2.09213,32,0,16,0,0,0,0,0,0,0,1,2,4,,,,,,,,,,,,,,,,,,,,,
1.60E+15,8212,-2.1567695,32,0,16,0,0,0,0,0,0,0,1,2,4,,,,,,,,,,,,,,,,,,,,,
1.60E+15,8210,-2.2222838,32,0,16,0,0,0,0,0,0,0,1,2,4,,,,,,,,,,,,,,,,,,,,,
1.60E+15,8196,-2.298238,32,0,16,0,0,0,0,0,0,0,1,2,4,,,,,,,,,,,,,,,,,,,,,
1.60E+15,8190,-2.3784094,32,0,16,0,0,0,0,0,0,0,1,2,4,,,,,,,,,,,,,,,,,,,,,
1.60E+15,8203,-2.442771,32,0,16,0,0,0,0,0,0,0,1,2,4,,,,,,,,,,,,,,,,,,,,,
1.60E+15,8212,-2.473758,32,0,16,0,0,0,0,0,0,0,1,2,4,,,,,,,,,,,,,,,,,,,,,
1.60E+15,8210,-2.464288,32,0,16,0,32794,16487,32709,32760,32765,32767,1,2,4,,,,,,,,,,,,,,,,,,,,,
1.60E+15,8198,-2.4097068,32,0,16,0,0,0,0,0,0,0,1,2,4,,,,,,,,,,,,,,,,,,,,,
1.60E+15,8191,-2.29867,32,0,16,0,0,0,0,0,0,0,1,2,4,,,,,,,,,,,,,,,,,,,,,
1.60E+15,8206,-2.1186032,32,0,16,0,0,0,0,0,0,0,1,2,4,,,,,,,,,,,,,,,,,,,,,
1.60E+15,8215,-1.8692243,32,0,16,0,0,0,0,0,0,0,1,2,4,,,,,,,,,,,,,,,,,,,,,
1.60E+15,8209,-1.5640178,32,0,16,0,0,0,0,0,0,0,1,2,4,,,,,,,,,,,,,,,,,,,,,
1.60E+15,8198,-1.2160738,32,0,16,0,0,0,0,0,0,0,1,2,4,,,,,,,,,,,,,,,,,,,,,
1.60E+15,8192,-0.828717,32,0,16,0,0,0,0,0,0,0,1,2,4,,,,,,,,,,,,,,,,,,,,,
1.60E+15,8204,-0.40699238,32,0,16,0,0,0,0,0,0,0,1,2,4,,,,,,,,,,,,,,,,,,,,,
1.60E+15,8217,0.022210201,32,0,16,0,0,0,0,0,0,0,1,2,4,,,,,,,,,,,,,,,,,,,,,
1.60E+15,8214,0.40681353,32,0,16,0,0,0,0,0,0,0,1,2,4,,,,,,,,,,,,,,,,,,,,,
1.60E+15,8196,0.6887289,32,0,16,0,0,0,0,0,0,0,1,2,4,,,,,,,,,,,,,,,,,,,,,
1.60E+15,8190,0.82484096,32,0,16,0,32769,16252,32768,32768,32764,32767,1,2,4,,,,,,,,,,,,,,,,,,,,,
1.60E+15,8204,0.79101133,32,0,16,0,0,0,0,0,0,0,1,2,4,,,,,,,,,,,,,,,,,,,,,
1.60E+15,8215,0.57392436,32,0,16,0,0,0,0,0,0,0,1,2,4,,,,,,,,,,,,,,,,,,,,,
1.60E+15,8207,0.16977344,32,0,16,0,0,0,0,0,0,0,1,2,4,,,,,,,,,,,,,,,,,,,,,
1.60E+15,8196,-0.40543646,32,0,16,0,0,0,0,0,0,0,1,2,4,,,,,,,,,,,,,,,,,,,,,
1.60E+15,8191,-1.1098067,32,0,16,0,0,0,0,0,0,0,1,2,4,,,,,,,,,,,,,,,,,,,,,
1.60E+15,8207,-1.8873885,32,0,16,0,0,0,0,0,0,0,1,2,4,,,,,,,,,,,,,,,,,,,,,
1.60E+15,8217,-2.6875315,32,0,16,0,0,0,0,0,0,0,1,2,4,,,,,,,,,,,,,,,,,,,,,
1.60E+15,8209,-3.470794,32,0,16,0,0,0,0,0,0,0,1,2,4,,,,,,,,,,,,,,,,,,,,,
1.60E+15,8196,-4.1992283,32,0,16,0,0,0,0,0,0,0,1,2,4,,,,,,,,,,,,,,,,,,,,,
1.60E+15,8192,-4.8319306,32,0,16,0,0,0,0,0,0,0,1,2,4,,,,,,,,,,,,,,,,,,,,,
1.60E+15,8205,-5.338776,32,0,16,0,0,0,0,0,0,0,1,2,4,,,,,,,,,,,,,,,,,,,,,
1.60E+15,8215,-5.7180777,32,0,16,0,32797,16450,32691,32766,32765,32767,1,2,4,,,,,,,,,,,,,,,,,,,,,
1.60E+15,8210,-5.994169,32,0,16,0,0,0,0,0,0,0,1,2,4,,,,,,,,,,,,,,,,,,,,,
1.60E+15,8194,-6.1942487,32,0,16,0,0,0,0,0,0,0,1,2,4,,,,,,,,,,,,,,,,,,,,,
1.60E+15,8195,-6.3297434,32,0,16,0,0,0,0,0,0,0,1,2,4,,,,,,,,,,,,,,,,,,,,,
1.60E+15,8207,-6.399878,32,0,16,0,0,0,0,0,0,0,1,2,4,,,,,,,,,,,,,,,,,,,,,
1.60E+15,8215,-6.406486,32,0,16,0,0,0,0,0,0,0,1,2,4,,,,,,,,,,,,,,,,,,,,,
1.60E+15,8207,-6.3570905,32,0,16,0,0,0,0,0,0,0,1,2,4,,,,,,,,,,,,,,,,,,,,,
1.60E+15,8195,-6.252817,32,0,16,0,0,0,0,0,0,0,1,2,4,,,,,,,,,,,,,,,,,,,,,
1.60E+15,8193,-6.082389,32,0,16,0,0,0,0,0,0,0,1,2,4,,,,,,,,,,,,,,,,,,,,,
1.60E+15,8207,-5.8358226,32,0,16,0,0,0,0,0,0,0,1,2,4,,,,,,,,,,,,,,,,,,,,,
1.60E+15,8215,-5.5236597,32,0,16,0,0,0,0,0,0,0,1,2,4,,,,,,,,,,,,,,,,,,,,,
1.60E+15,8209,-5.178233,32,0,16,0,0,0,0,0,0,0,1,2,4,,,,,,,,,,,,,,,,,,,,,
